2.46875,2.546875,2.4375,2.5,1.2562243938446045,20636000
2.515625,2.625,2.5,2.578125,1.2954813241958618,6453600
2.59375,2.625,2.546875,2.546875,1.2797784805297852,2755200
2.546875,2.546875,2.5,2.546875,1.2797784805297852,1084000
2.5625,2.5625,2.5,2.53125,1.2719273567199707,1493600
2.5,2.515625,2.46875,2.515625,1.2640759944915771,1260000
2.515625,2.546875,2.515625,2.53125,1.2719273567199707,602400
2.53125,2.53125,2.46875,2.484375,1.2483726739883425,3970400
2.375,2.46875,2.375,2.46875,1.2405216693878174,3924800
2.4375,2.5,2.4375,2.5,1.2562243938446045,1843200
2.5,2.5625,2.484375,2.546875,1.2797784805297852,1128000
2.53125,2.546875,2.53125,2.546875,1.2797784805297852,1040000
2.53125,2.53125,2.515625,2.53125,1.2719273567199707,237600
2.546875,2.5625,2.546875,2.546875,1.2797784805297852,87200
2.546875,2.5625,2.53125,2.5625,1.2876300811767578,689600
2.546875,2.578125,2.515625,2.546875,1.2797784805297852,608000
2.546875,2.5625,2.546875,2.546875,1.2797784805297852,228800
2.546875,2.546875,2.5,2.515625,1.2640759944915771,456000
2.515625,2.515625,2.5,2.5,1.2562243938446045,250400
2.5,2.515625,2.5,2.5,1.2562243938446045,424800
2.515625,2.5625,2.515625,2.5625,1.2876300811767578,715200
2.59375,2.640625,2.59375,2.640625,1.3268862962722778,130400
2.625,2.75,2.625,2.734375,1.3739949464797974,1118400
2.71875,2.71875,2.578125,2.578125,1.2954813241958618,264800
2.546875,2.6875,2.5,2.6875,1.3504414558410645,727200
2.6875,2.71875,2.671875,2.71875,1.366143822669983,236800
2.71875,2.71875,2.6875,2.6875,1.3504414558410645,60800
2.6875,2.6875,2.546875,2.5625,1.2876300811767578,210400
2.5625,2.5625,2.515625,2.546875,1.2797784805297852,92800
2.578125,2.578125,2.484375,2.53125,1.2719273567199707,428000
2.546875,2.578125,2.53125,2.5625,1.2876300811767578,176000
2.546875,2.59375,2.546875,2.59375,1.3033326864242554,301600
2.59375,2.640625,2.59375,2.640625,1.3268862962722778,249600
2.65625,2.65625,2.609375,2.609375,1.3111838102340698,43200
2.59375,2.671875,2.59375,2.671875,1.3425893783569336,108800
2.6875,2.75,2.6875,2.75,1.381847262382507,255200
2.78125,2.953125,2.78125,2.921875,1.468212366104126,572000
2.90625,2.9375,2.859375,2.875,1.4446580410003662,253600
2.875,2.875,2.828125,2.828125,1.4211043119430542,560000
2.8125,2.8125,2.78125,2.796875,1.4054003953933716,60800
2.8125,2.90625,2.8125,2.890625,1.452508807182312,712800
2.890625,2.953125,2.890625,2.90625,1.460360407829285,356800
2.9375,2.984375,2.875,2.984375,1.4996185302734375,172000
2.953125,2.984375,2.90625,2.90625,1.460360407829285,93600
2.90625,3.0,2.90625,2.984375,1.4996185302734375,668800
2.984375,2.984375,2.921875,2.953125,1.483914494514465,215200
2.921875,2.953125,2.921875,2.953125,1.483914494514465,122400
2.96875,3.03125,2.9375,3.0,1.5074690580368042,306400
3.015625,3.03125,2.984375,3.015625,1.515320897102356,1119200
3.0,3.15625,2.984375,3.15625,1.5859830379486084,400000
3.125,3.140625,3.109375,3.125,1.570280909538269,391200
3.140625,3.140625,3.09375,3.109375,1.562427997589111,155200
3.078125,3.125,3.03125,3.03125,1.5231716632843018,224000
3.03125,3.0625,3.03125,3.0625,1.5388747453689575,215200
3.0625,3.109375,3.046875,3.078125,1.5467259883880615,166400
3.109375,3.125,3.0625,3.109375,1.562427997589111,174400
3.125,3.125,3.109375,3.125,1.570280909538269,173600
3.109375,3.109375,3.078125,3.078125,1.5467259883880615,97600
3.0625,3.0625,3.03125,3.03125,1.5231716632843018,144000
3.046875,3.046875,3.03125,3.03125,1.5231716632843018,11200
3.03125,3.15625,3.015625,3.15625,1.5859830379486084,219200
3.125,3.125,3.03125,3.046875,1.5310235023498535,194400
3.0625,3.0625,3.03125,3.03125,1.5231716632843018,361600
3.03125,3.0625,2.953125,2.953125,1.483914494514465,166400
2.9375,2.9375,2.859375,2.90625,1.460360407829285,100800
2.875,2.890625,2.84375,2.859375,1.4368064403533936,880800
2.828125,2.84375,2.8125,2.8125,1.4132522344589231,282400
2.765625,2.765625,2.6875,2.703125,1.382876753807068,784000
2.71875,2.765625,2.703125,2.75,1.4068576097488403,347200
2.71875,2.734375,2.6875,2.71875,1.3908703327178955,159200
2.734375,2.734375,2.71875,2.71875,1.3908703327178955,25600
2.6875,2.703125,2.625,2.703125,1.382876753807068,172800
2.71875,2.8125,2.71875,2.71875,1.3908703327178955,216000
2.6875,2.71875,2.6875,2.703125,1.382876753807068,157600
2.734375,2.75,2.734375,2.75,1.4068576097488403,8800
2.734375,2.75,2.71875,2.734375,1.3988640308380127,56800
2.765625,2.765625,2.734375,2.75,1.4068576097488403,101600
2.734375,2.734375,2.6875,2.6875,1.3748838901519775,26400
2.6875,2.71875,2.671875,2.71875,1.3908703327178955,249600
2.703125,2.71875,2.671875,2.671875,1.3668901920318604,45600
2.6875,2.6875,2.625,2.640625,1.3509025573730469,444000
2.625,2.65625,2.578125,2.65625,1.3588963747024536,548000
2.6875,2.859375,2.6875,2.859375,1.4628112316131592,757600
2.875,2.875,2.84375,2.859375,1.4628112316131592,149600
2.875,2.90625,2.875,2.875,1.470805287361145,720000
2.90625,2.90625,2.875,2.875,1.470805287361145,163200
2.875,2.90625,2.84375,2.890625,1.4787991046905518,99200
2.90625,2.9375,2.90625,2.9375,1.5027796030044556,32800
2.96875,3.125,2.96875,3.046875,1.55873441696167,346400
3.078125,3.125,2.96875,3.0,1.534753680229187,179200
3.0,3.0,2.90625,2.90625,1.4867923259735107,28000
2.9375,2.953125,2.9375,2.953125,1.510773777961731,26400
2.953125,2.96875,2.9375,2.9375,1.5027796030044556,32800
2.953125,2.96875,2.953125,2.953125,1.510773777961731,152000
2.96875,2.96875,2.96875,2.96875,1.5187658071517944,32000
2.984375,2.984375,2.953125,2.953125,1.510773777961731,23200
2.953125,2.953125,2.90625,2.90625,1.4867923259735107,553600
2.90625,2.90625,2.84375,2.84375,1.4548184871673584,148000
2.78125,2.78125,2.6875,2.71875,1.3908703327178955,575200
2.734375,2.75,2.734375,2.75,1.4068576097488403,477600
2.765625,2.84375,2.765625,2.84375,1.4548184871673584,357600
2.8125,2.828125,2.796875,2.796875,1.4308377504348757,145600
2.796875,2.796875,2.75,2.75,1.4068576097488403,225600
2.75,2.78125,2.6875,2.703125,1.382876753807068,931200
2.671875,2.703125,2.65625,2.671875,1.3668901920318604,146400
2.671875,2.734375,2.625,2.734375,1.3988640308380127,258400
2.734375,2.75,2.703125,2.75,1.4068576097488403,174400
2.75,2.796875,2.734375,2.78125,1.4228447675704956,146400
2.75,2.78125,2.734375,2.734375,1.3988640308380127,194400
2.703125,2.71875,2.625,2.6875,1.3748838901519775,1072800
2.671875,2.6875,2.671875,2.6875,1.3748838901519775,662400
2.671875,2.765625,2.671875,2.765625,1.4148505926132202,298400
2.78125,2.796875,2.71875,2.71875,1.3908703327178955,192000
2.75,2.78125,2.734375,2.78125,1.4228447675704956,271200
2.75,2.765625,2.75,2.765625,1.4148505926132202,476000
2.75,2.90625,2.75,2.796875,1.4308377504348757,898400
2.796875,2.8125,2.796875,2.796875,1.4308377504348757,102400
2.75,2.765625,2.75,2.765625,1.4148505926132202,177600
2.796875,2.796875,2.796875,2.796875,1.4308377504348757,320000
2.78125,2.78125,2.75,2.75,1.4068576097488403,37600
2.734375,2.75,2.734375,2.75,1.4068576097488403,24000
2.84375,2.9375,2.84375,2.921875,1.4947866201400757,706400
2.921875,2.9375,2.890625,2.90625,1.4867923259735107,361600
2.921875,2.921875,2.921875,2.921875,1.4947866201400757,161600
2.921875,2.921875,2.84375,2.875,1.470805287361145,184800
2.875,3.03125,2.875,2.984375,1.526760220527649,358400
2.984375,2.984375,2.90625,2.90625,1.4867923259735107,364800
2.9375,2.953125,2.90625,2.90625,1.4867923259735107,373600
2.921875,2.921875,2.78125,2.78125,1.4228447675704956,810400
2.734375,2.765625,2.734375,2.734375,1.424472689628601,336800
2.75,2.8125,2.71875,2.765625,1.440752625465393,426400
2.78125,2.8125,2.71875,2.734375,1.424472689628601,234400
2.71875,2.734375,2.59375,2.625,1.3674936294555664,456000
2.640625,2.734375,2.640625,2.703125,1.4081926345825195,273600
2.71875,2.71875,2.703125,2.71875,1.4163331985473633,16800
2.6875,2.75,2.6875,2.71875,1.4163331985473633,333600
2.71875,2.71875,2.671875,2.6875,1.4000530242919922,207200
2.671875,2.6875,2.65625,2.671875,1.391912817955017,168800
2.65625,2.65625,2.625,2.625,1.3674936294555664,173600
2.625,2.671875,2.625,2.625,1.3674936294555664,458400
2.65625,2.671875,2.640625,2.65625,1.3837735652923584,104000
2.625,2.6875,2.625,2.6875,1.4000530242919922,461600
2.6875,2.703125,2.6875,2.703125,1.4081926345825195,133600
2.703125,2.71875,2.6875,2.71875,1.4163331985473633,68800
2.71875,2.828125,2.6875,2.8125,1.465172529220581,732800
2.78125,2.828125,2.765625,2.8125,1.465172529220581,575200
2.84375,2.859375,2.828125,2.828125,1.4733116626739502,105600
2.84375,2.84375,2.78125,2.78125,1.4488924741744995,279200
2.78125,2.84375,2.78125,2.84375,1.4814515113830566,32800
2.84375,2.84375,2.828125,2.828125,1.4733116626739502,48800
2.84375,2.859375,2.796875,2.796875,1.4570317268371582,1232800
2.8125,2.84375,2.796875,2.796875,1.4570317268371582,428000
2.828125,2.875,2.828125,2.875,1.4977315664291382,172000
2.890625,2.890625,2.75,2.75,1.432612061500549,2418400
2.78125,2.828125,2.75,2.8125,1.465172529220581,5804800
2.8125,2.96875,2.8125,2.90625,1.5140116214752195,367200
2.921875,2.953125,2.921875,2.953125,1.5384306907653809,196000
2.96875,3.0,2.96875,3.0,1.562849760055542,181600
2.96875,2.96875,2.921875,2.953125,1.5384306907653809,74400
2.984375,2.984375,2.96875,2.96875,1.546570062637329,40800
2.96875,2.96875,2.90625,2.90625,1.5140116214752195,30400
2.921875,2.921875,2.75,2.8125,1.465172529220581,483200
2.8125,2.875,2.75,2.875,1.4977315664291382,817600
2.890625,2.90625,2.890625,2.90625,1.5140116214752195,60800
2.9375,2.984375,2.921875,2.96875,1.546570062637329,129600
2.9375,2.984375,2.90625,2.96875,1.546570062637329,143200
2.96875,2.984375,2.953125,2.96875,1.546570062637329,47200
2.9375,2.984375,2.90625,2.984375,1.5547103881835938,68000
2.984375,3.0,2.796875,2.890625,1.5058702230453491,1125600
2.890625,2.90625,2.875,2.875,1.4977315664291382,44000
2.890625,2.890625,2.859375,2.859375,1.489590764045715,212800
2.875,2.875,2.8125,2.84375,1.4814515113830566,405600
2.859375,2.890625,2.84375,2.875,1.4977315664291382,48800
2.90625,3.0,2.859375,2.984375,1.5547103881835938,196000
2.96875,3.09375,2.96875,2.96875,1.546570062637329,208000
2.953125,2.984375,2.9375,2.984375,1.5547103881835938,20800
2.984375,2.984375,2.921875,2.96875,1.546570062637329,158400
2.96875,2.96875,2.96875,2.96875,1.546570062637329,1600
2.9375,2.9375,2.875,2.921875,1.5221513509750366,174400
2.953125,2.953125,2.90625,2.9375,1.5302903652191162,127200
2.921875,2.9375,2.921875,2.9375,1.5302903652191162,6400
2.9375,2.953125,2.921875,2.953125,1.5384306907653809,356800
2.921875,2.9375,2.90625,2.921875,1.5221513509750366,24800
2.90625,2.921875,2.859375,2.921875,1.5221513509750366,207200
2.921875,2.9375,2.921875,2.921875,1.5221513509750366,13600
2.9375,2.96875,2.9375,2.96875,1.546570062637329,157600
2.984375,2.984375,2.953125,2.96875,1.546570062637329,327200
2.953125,2.953125,2.875,2.90625,1.5140116214752195,322400
2.9375,2.9375,2.875,2.875,1.4977315664291382,308800
2.84375,2.84375,2.8125,2.828125,1.4733116626739502,596800
2.78125,2.796875,2.78125,2.796875,1.4570317268371582,82400
2.796875,2.8125,2.75,2.78125,1.4488924741744995,724800
2.78125,2.78125,2.765625,2.78125,1.4754163026809692,1073600
2.78125,2.8125,2.78125,2.796875,1.483704924583435,776000
2.796875,2.90625,2.796875,2.875,1.5251498222351074,1208800
2.90625,3.0,2.90625,2.96875,1.5748826265335083,568000
2.984375,3.0,2.96875,2.96875,1.5748826265335083,680800
2.96875,2.96875,2.921875,2.921875,1.5500166416168213,102400
2.921875,2.921875,2.84375,2.84375,1.508571982383728,348000
2.8125,2.875,2.796875,2.875,1.5251498222351074,465600
2.890625,2.90625,2.890625,2.890625,1.5334378480911257,51200
2.875,2.9375,2.859375,2.9375,1.5583049058914185,349600
2.90625,3.015625,2.90625,2.984375,1.5831717252731323,353600
3.015625,3.03125,3.0,3.03125,1.6080374717712402,52000
3.0625,3.0625,3.03125,3.0625,1.624616265296936,80000
3.03125,3.0625,2.984375,2.984375,1.5831717252731323,75200
3.0,3.0,2.984375,3.0,1.591460347175598,160800
2.953125,3.015625,2.953125,3.0,1.591460347175598,175200
3.03125,3.0625,3.0,3.015625,1.5997495651245115,134400
3.125,3.171875,3.03125,3.171875,1.6826379299163818,1056800
3.15625,3.265625,3.109375,3.203125,1.699215531349182,1272000
3.25,3.265625,3.125,3.125,1.657772421836853,247200
3.125,3.140625,3.125,3.140625,1.6660606861114502,148800
3.125,3.140625,3.09375,3.09375,1.6411935091018677,170400
3.09375,3.09375,3.0625,3.09375,1.6411935091018677,296000
3.09375,3.109375,3.09375,3.09375,1.6411935091018677,299200
3.109375,3.125,3.078125,3.078125,1.6329057216644287,56800
3.109375,3.109375,3.0625,3.0625,1.624616265296936,49600
3.0625,3.15625,3.0625,3.125,1.657772421836853,196000
3.109375,3.125,3.078125,3.109375,1.6494823694229126,140000
3.140625,3.1875,3.125,3.140625,1.6660606861114502,201600
3.15625,3.15625,3.046875,3.046875,1.616326928138733,239200
3.0625,3.09375,3.0625,3.078125,1.6329057216644287,452000
3.0625,3.09375,3.015625,3.015625,1.5997495651245115,333600
3.0,3.0,2.9375,2.96875,1.5748826265335083,364000
2.921875,3.0,2.921875,3.0,1.591460347175598,326400
3.0,3.0,2.953125,2.953125,1.566594481468201,88000
2.953125,2.984375,2.953125,2.984375,1.5831717252731323,8000
3.015625,3.015625,2.9375,2.9375,1.5583049058914185,140800
2.953125,2.984375,2.90625,2.984375,1.5831717252731323,65600
2.953125,2.984375,2.890625,2.921875,1.5500166416168213,256800
2.9375,2.953125,2.9375,2.953125,1.566594481468201,20000
2.953125,3.1875,2.953125,3.171875,1.6826379299163818,223200
3.203125,3.296875,3.1875,3.296875,1.7489495277404783,317600
3.296875,3.359375,3.296875,3.359375,1.7821038961410522,160800
3.328125,3.390625,3.328125,3.359375,1.7821038961410522,1408800
3.375,3.375,3.1875,3.3125,1.7572368383407593,963200
3.34375,3.34375,3.265625,3.3125,1.7572368383407593,336000
3.3125,3.328125,3.25,3.25,1.7240824699401855,405600
3.25,3.390625,3.25,3.390625,1.7986819744110107,209600
3.390625,3.46875,3.375,3.46875,1.8401262760162356,1116000
3.46875,3.765625,3.46875,3.671875,1.947881817817688,776800
3.6875,3.6875,3.65625,3.65625,1.939592719078064,1624800
3.65625,3.65625,3.53125,3.53125,1.8732812404632568,432000
3.484375,3.5625,3.46875,3.5625,1.8898603916168213,521600
3.5625,3.5625,3.484375,3.515625,1.8649924993515012,112800
3.5,3.515625,3.5,3.515625,1.8649924993515012,221600
3.515625,3.515625,3.453125,3.46875,1.8401262760162356,55200
3.4375,3.453125,3.375,3.375,1.7903926372528076,72800
3.375,3.375,3.28125,3.34375,1.773815631866455,163200
3.328125,3.390625,3.296875,3.34375,1.773815631866455,455200
3.359375,3.359375,3.328125,3.359375,1.7821038961410522,72000
3.34375,3.34375,3.3125,3.34375,1.773815631866455,26400
3.34375,3.34375,3.25,3.25,1.7240824699401855,313600
3.234375,3.296875,3.1875,3.1875,1.690927028656006,550400
3.203125,3.234375,3.1875,3.1875,1.690927028656006,411200
3.203125,3.375,3.203125,3.34375,1.8020833730697632,298400
3.34375,3.34375,3.21875,3.234375,1.7431368827819824,200000
3.25,3.25,3.203125,3.21875,1.7347153425216677,34400
3.1875,3.203125,3.171875,3.203125,1.7262946367263794,89600
3.203125,3.203125,3.15625,3.15625,1.7010321617126465,36800
3.140625,3.15625,3.109375,3.109375,1.6757688522338867,153600
3.109375,3.125,3.09375,3.125,1.6841909885406494,11200
3.109375,3.125,3.109375,3.109375,1.6757688522338867,113600
3.109375,3.109375,3.078125,3.09375,1.667348027229309,36800
3.109375,3.109375,3.0625,3.0625,1.6505064964294434,68000
3.0625,3.109375,3.0625,3.109375,1.6757688522338867,17600
3.125,3.15625,3.125,3.15625,1.7010321617126465,120000
3.1875,3.328125,3.1875,3.328125,1.7936620712280271,112800
3.3125,3.359375,3.3125,3.359375,1.8105040788650515,22400
3.375,3.375,3.359375,3.359375,1.8105040788650515,16000
3.34375,3.359375,3.28125,3.296875,1.7768210172653198,29600
3.3125,3.453125,3.3125,3.375,1.8189247846603396,366400
3.375,3.375,3.359375,3.375,1.8189247846603396,163200
3.375,3.53125,3.375,3.5,1.886291742324829,469600
3.53125,3.546875,3.46875,3.46875,1.8694510459899905,426400
3.484375,3.484375,3.421875,3.421875,1.8441880941390991,8800
3.421875,3.421875,3.375,3.375,1.8189247846603396,148000
3.34375,3.390625,3.34375,3.390625,1.8273462057113647,37600
3.375,3.4375,3.375,3.421875,1.8441880941390991,397600
3.390625,3.390625,3.328125,3.328125,1.7936620712280271,76800
3.15625,3.15625,3.109375,3.109375,1.6757688522338867,208000
3.125,3.1875,3.109375,3.1875,1.7178741693496704,75200
3.15625,3.171875,3.125,3.140625,1.6926114559173584,45600
3.140625,3.15625,3.09375,3.15625,1.7010321617126465,300800
3.15625,3.15625,2.984375,2.984375,1.6084015369415283,456800
2.96875,2.96875,2.84375,2.921875,1.5747178792953491,329600
2.90625,2.96875,2.890625,2.96875,1.599980354309082,32800
2.96875,2.984375,2.96875,2.96875,1.599980354309082,18400
2.984375,3.0,2.96875,2.96875,1.599980354309082,40000
2.984375,2.984375,2.9375,2.953125,1.591560125350952,39200
2.953125,2.953125,2.90625,2.921875,1.5747178792953491,145600
2.90625,2.90625,2.90625,2.90625,1.566297173500061,36800
2.875,2.890625,2.765625,2.8125,1.5157713890075684,236000
2.796875,2.796875,2.609375,2.75,1.4820868968963623,366400
2.734375,2.734375,2.671875,2.71875,1.4652458429336548,230400
2.71875,2.796875,2.71875,2.78125,1.4989290237426758,432000
2.78125,2.8125,2.734375,2.75,1.4820868968963623,248800
2.71875,2.71875,2.625,2.71875,1.4652458429336548,257600
2.734375,2.734375,2.703125,2.71875,1.4652458429336548,179200
2.703125,2.78125,2.703125,2.734375,1.473666071891785,981600
2.75,2.78125,2.734375,2.78125,1.4989290237426758,493600
2.75,2.75,2.71875,2.71875,1.4652458429336548,908000
2.71875,2.78125,2.65625,2.78125,1.4989290237426758,207200
2.796875,2.828125,2.734375,2.734375,1.473666071891785,89600
2.765625,2.796875,2.703125,2.703125,1.4568238258361816,153600
2.703125,2.734375,2.640625,2.640625,1.4231406450271606,277600
2.609375,2.609375,2.546875,2.5625,1.381035566329956,1007200
2.484375,2.515625,2.484375,2.5,1.3473519086837769,980000
2.5,2.546875,2.5,2.546875,1.3726146221160889,222400
2.5625,2.75,2.5625,2.75,1.4820868968963623,93600
2.75,2.75,2.71875,2.734375,1.473666071891785,51200
2.71875,2.71875,2.65625,2.65625,1.431561827659607,49600
2.65625,2.65625,2.53125,2.65625,1.431561827659607,364800
2.625,2.625,2.59375,2.59375,1.3978774547576904,36000
2.59375,2.59375,2.484375,2.484375,1.338930606842041,413600
2.4375,2.4375,2.328125,2.328125,1.2547211647033691,216800
2.296875,2.3125,2.21875,2.265625,1.2210378646850586,599200
2.25,2.265625,2.15625,2.15625,1.1620912551879885,679200
2.171875,2.1875,2.140625,2.140625,1.1810569763183594,572000
2.125,2.140625,2.09375,2.140625,1.1810569763183594,296000
2.109375,2.21875,2.109375,2.21875,1.22416090965271,278400
2.234375,2.265625,2.21875,2.25,1.2414026260375977,172800
2.25,2.25,2.171875,2.234375,1.2327824831008911,92800
2.234375,2.25,2.171875,2.203125,1.2155404090881348,50400
2.1875,2.25,2.03125,2.203125,1.2155404090881348,1341600
2.203125,2.21875,2.15625,2.1875,1.20691978931427,275200
2.15625,2.15625,2.0625,2.125,1.1724361181259155,550400
2.15625,2.171875,2.125,2.125,1.1724361181259155,174400
2.140625,2.265625,2.140625,2.25,1.2414026260375977,837600
2.3125,2.34375,2.265625,2.28125,1.2586439847946167,495200
2.3125,2.375,2.21875,2.25,1.2414026260375977,817600
2.28125,2.296875,2.203125,2.234375,1.2327824831008911,679200
2.25,2.265625,2.25,2.25,1.2414026260375977,99200
2.21875,2.25,2.203125,2.234375,1.2327824831008911,132000
2.21875,2.21875,2.15625,2.171875,1.1982983350753784,384800
2.15625,2.21875,2.15625,2.21875,1.22416090965271,869600
2.21875,2.28125,2.203125,2.25,1.2414026260375977,961600
2.25,2.375,2.25,2.28125,1.2586439847946167,1217600
2.28125,2.5,2.28125,2.484375,1.3707160949707031,1186400
2.546875,2.78125,2.546875,2.6875,1.482786774635315,1224000
2.65625,2.6875,2.640625,2.671875,1.4741666316986084,94400
2.6875,2.75,2.640625,2.703125,1.4914071559906006,307200
2.734375,2.734375,2.59375,2.59375,1.4310612678527832,216000
2.625,2.703125,2.625,2.703125,1.4914071559906006,45600
2.6875,2.6875,2.515625,2.515625,1.3879574537277222,148800
2.484375,2.609375,2.484375,2.609375,1.4396822452545166,356800
2.59375,2.59375,2.515625,2.546875,1.40519917011261,160800
2.546875,2.625,2.515625,2.625,1.4483033418655396,219200
2.609375,2.625,2.59375,2.59375,1.4310612678527832,188000
2.59375,2.59375,2.453125,2.453125,1.3534740209579468,408000
2.453125,2.453125,2.328125,2.328125,1.2845075130462646,88800
2.3125,2.328125,2.265625,2.3125,1.2758859395980835,776800
2.34375,2.453125,2.34375,2.4375,1.3448528051376345,1544000
2.46875,2.59375,2.453125,2.59375,1.4310612678527832,578400
2.59375,2.59375,2.53125,2.546875,1.40519917011261,692800
2.546875,2.609375,2.546875,2.59375,1.4310612678527832,555200
2.5625,2.578125,2.5625,2.578125,1.4224412441253662,418400
2.546875,2.59375,2.546875,2.5625,1.413819670677185,180800
2.5625,2.625,2.5625,2.625,1.4483033418655396,280800
2.625,2.78125,2.59375,2.671875,1.4741666316986084,442400
2.6875,2.75,2.6875,2.71875,1.500028371810913,116000
2.75,2.75,2.6875,2.6875,1.482786774635315,163200
2.671875,2.671875,2.59375,2.59375,1.4310612678527832,147200
2.578125,2.59375,2.546875,2.5625,1.413819670677185,184000
2.546875,2.65625,2.546875,2.625,1.4483033418655396,289600
2.640625,2.6875,2.625,2.6875,1.482786774635315,136000
2.65625,2.65625,2.609375,2.625,1.4483033418655396,172000
2.625,2.65625,2.625,2.65625,1.465545415878296,71200
2.671875,2.734375,2.65625,2.734375,1.5086491107940674,327200
2.734375,2.734375,2.703125,2.703125,1.4914071559906006,93600
2.71875,2.71875,2.640625,2.703125,1.4914071559906006,115200
2.671875,2.6875,2.625,2.65625,1.465545415878296,447200
2.640625,2.640625,2.578125,2.578125,1.4224412441253662,86400
2.578125,2.59375,2.515625,2.515625,1.3879574537277222,70400
2.53125,2.53125,2.453125,2.453125,1.3534740209579468,128000
2.46875,2.46875,2.359375,2.375,1.3103697299957275,367200
2.359375,2.4375,2.3125,2.3125,1.2758859395980835,1358400
2.34375,2.40625,2.34375,2.40625,1.327611207962036,1049600
2.421875,2.484375,2.421875,2.484375,1.3707160949707031,73600
2.46875,2.46875,2.4375,2.4375,1.3448528051376345,24000
2.40625,2.4375,2.375,2.4375,1.3448528051376345,198400
2.421875,2.421875,2.34375,2.390625,1.3466132879257202,198400
2.40625,2.4375,2.359375,2.40625,1.3554149866104126,255200
2.40625,2.46875,2.390625,2.46875,1.3906196355819702,398400
2.5,2.5625,2.5,2.546875,1.4346274137496948,258400
2.53125,2.640625,2.53125,2.625,1.478634238243103,468000
2.640625,2.640625,2.578125,2.578125,1.4522305727005005,662400
2.609375,2.640625,2.609375,2.625,1.478634238243103,68800
2.609375,2.625,2.5625,2.578125,1.4522305727005005,20000
2.578125,2.578125,2.484375,2.5,1.408223032951355,263200
2.484375,2.5,2.453125,2.5,1.408223032951355,69600
2.5,2.5,2.46875,2.5,1.408223032951355,44800
2.484375,2.484375,2.46875,2.46875,1.3906196355819702,70400
2.453125,2.453125,2.421875,2.4375,1.3730181455612185,24000
2.421875,2.421875,2.34375,2.34375,1.3202093839645386,373600
2.375,2.375,2.328125,2.375,1.3378117084503174,1024800
2.375,2.421875,2.34375,2.421875,1.3642159700393677,403200
2.40625,2.40625,2.375,2.375,1.3378117084503174,714400
2.40625,2.4375,2.359375,2.390625,1.3466132879257202,464000
2.375,2.375,2.359375,2.359375,1.3290109634399414,11200
2.375,2.375,2.28125,2.34375,1.3202093839645386,360800
2.34375,2.453125,2.328125,2.4375,1.3730181455612185,567200
2.453125,2.46875,2.40625,2.46875,1.3906196355819702,150400
2.453125,2.453125,2.375,2.375,1.3378117084503174,88800
2.359375,2.359375,2.28125,2.28125,1.2850033044815063,872000
2.28125,2.375,2.28125,2.3125,1.3026068210601809,366400
2.3125,2.40625,2.3125,2.390625,1.3466132879257202,276000
2.453125,2.46875,2.421875,2.421875,1.3642159700393677,404000
2.421875,2.421875,2.390625,2.40625,1.3554149866104126,25600
2.40625,2.4375,2.390625,2.40625,1.3554149866104126,121600
2.4375,2.4375,2.34375,2.375,1.3378117084503174,480800
2.375,2.390625,2.375,2.390625,1.3466132879257202,31200
2.40625,2.421875,2.375,2.40625,1.3554149866104126,240800
2.421875,2.453125,2.375,2.390625,1.3466132879257202,160800
2.375,2.453125,2.375,2.4375,1.3730181455612185,60000
2.4375,2.4375,2.421875,2.4375,1.3730181455612185,334400
2.4375,2.5,2.421875,2.5,1.408223032951355,521600
2.53125,2.625,2.53125,2.625,1.478634238243103,1612000
2.65625,2.6875,2.609375,2.625,1.478634238243103,256000
2.65625,2.671875,2.625,2.625,1.478634238243103,1272800
2.625,2.625,2.578125,2.578125,1.4522305727005005,141600
2.5625,2.609375,2.5625,2.59375,1.4610313177108765,201600
2.59375,2.59375,2.53125,2.53125,1.4258264303207395,473600
2.546875,2.5625,2.53125,2.53125,1.4258264303207395,168000
2.53125,2.53125,2.4375,2.5,1.408223032951355,155200
2.5,2.5,2.484375,2.5,1.408223032951355,51200
2.5,2.5,2.484375,2.484375,1.399422287940979,1600
2.46875,2.46875,2.46875,2.46875,1.3906196355819702,83200
2.46875,2.46875,2.453125,2.453125,1.3818186521530151,21600
2.46875,2.46875,2.4375,2.46875,1.3906196355819702,341600
2.46875,2.5,2.46875,2.5,1.408223032951355,170400
2.4375,2.4375,2.375,2.375,1.3378117084503174,30400
2.34375,2.375,2.3125,2.34375,1.3202093839645386,251200
2.359375,2.375,2.3125,2.375,1.3378117084503174,124800
2.375,2.375,2.359375,2.359375,1.3290109634399414,39200
2.328125,2.359375,2.296875,2.3125,1.3026068210601809,188000
2.3125,2.34375,2.28125,2.3125,1.3026068210601809,260800
2.3125,2.3125,2.25,2.25,1.2674005031585691,418400
2.25,2.25,2.203125,2.203125,1.2409967184066772,188800
2.21875,2.25,2.21875,2.234375,1.2585997581481934,127200
2.203125,2.28125,2.203125,2.25,1.2674005031585691,267200
2.25,2.25,2.25,2.25,1.2674005031585691,3200
2.25,2.296875,2.25,2.296875,1.2938048839569092,192800
2.28125,2.3125,2.234375,2.265625,1.304602026939392,359200
2.25,2.25,2.234375,2.234375,1.2866076231002808,56000
2.25,2.328125,2.25,2.3125,1.3315938711166382,152800
2.34375,2.359375,2.28125,2.296875,1.322596549987793,1025600
2.328125,2.375,2.328125,2.375,1.3675822019577026,791200
2.359375,2.421875,2.34375,2.421875,1.3945740461349487,1204800
2.453125,2.59375,2.4375,2.59375,1.4935439825057983,1052000
2.625,2.671875,2.625,2.671875,1.538530349731445,304800
2.671875,2.671875,2.609375,2.625,1.5115387439727783,73600
2.625,2.625,2.5625,2.59375,1.4935439825057983,72000
2.609375,2.625,2.578125,2.578125,1.4845472574234009,124000
2.578125,2.59375,2.578125,2.578125,1.4845472574234009,39200
2.5625,2.578125,2.5625,2.5625,1.4755491018295288,232800
2.5625,2.59375,2.5625,2.59375,1.4935439825057983,226400
2.609375,2.609375,2.59375,2.609375,1.502541184425354,6400
2.59375,2.65625,2.59375,2.625,1.5115387439727783,582400
2.5625,2.578125,2.53125,2.53125,1.4575554132461548,698400
2.53125,2.578125,2.53125,2.5625,1.4755491018295288,248800
2.546875,2.546875,2.546875,2.546875,1.4665521383285522,71200
2.5625,2.578125,2.546875,2.5625,1.4755491018295288,96800
2.5625,2.625,2.5625,2.59375,1.4935439825057983,457600
2.59375,2.625,2.59375,2.625,1.5115387439727783,733600
2.640625,2.6875,2.625,2.640625,1.5205354690551758,413600
2.625,2.65625,2.625,2.65625,1.5295335054397583,111200
2.6875,2.703125,2.640625,2.65625,1.5295335054397583,223200
2.640625,2.6875,2.640625,2.6875,1.5475269556045532,118400
2.671875,2.75,2.671875,2.75,1.5835165977478027,372000
2.75,2.75,2.71875,2.75,1.5835165977478027,369600
2.734375,2.734375,2.703125,2.703125,1.5565248727798462,490400
2.671875,2.671875,2.609375,2.609375,1.502541184425354,91200
2.609375,2.625,2.609375,2.625,1.5115387439727783,22400
2.625,2.625,2.609375,2.625,1.5115387439727783,78400
2.640625,2.640625,2.5625,2.59375,1.4935439825057983,292800
2.59375,2.75,2.59375,2.75,1.5835165977478027,1125600
2.75,2.78125,2.734375,2.75,1.5835165977478027,183200
2.75,2.84375,2.75,2.8125,1.6195054054260254,362400
2.84375,2.953125,2.828125,2.9375,1.691483736038208,203200
2.921875,3.0,2.921875,2.953125,1.700480580329895,416800
2.96875,2.96875,2.90625,2.921875,1.6824865341186523,236800
2.890625,2.890625,2.78125,2.78125,1.6015108823776243,230400
2.765625,2.8125,2.75,2.765625,1.5925140380859375,175200
2.796875,2.828125,2.796875,2.8125,1.6195054054260254,309600
2.8125,2.828125,2.78125,2.828125,1.6285032033920288,55200
2.8125,2.84375,2.8125,2.84375,1.6374995708465576,8000
2.828125,2.84375,2.8125,2.84375,1.6374995708465576,452800
2.828125,2.84375,2.8125,2.84375,1.6374995708465576,145600
2.859375,2.859375,2.84375,2.84375,1.6374995708465576,48000
2.875,2.875,2.828125,2.84375,1.6374995708465576,366400
2.859375,2.859375,2.828125,2.84375,1.6374995708465576,433600
2.84375,2.890625,2.84375,2.890625,1.664492130279541,648800
2.90625,2.9375,2.90625,2.9375,1.691483736038208,136800
2.953125,3.03125,2.921875,3.03125,1.7454677820205688,153600
3.078125,3.078125,3.0,3.03125,1.7454677820205688,312000
3.0625,3.0625,2.96875,2.96875,1.7094775438308716,113600
2.96875,2.96875,2.875,2.875,1.655495285987854,77600
2.890625,2.890625,2.875,2.875,1.655495285987854,7200
2.90625,2.953125,2.875,2.953125,1.700480580329895,296000
2.96875,3.0,2.953125,2.96875,1.7094775438308716,70400
2.953125,2.984375,2.953125,2.984375,1.718475341796875,229600
2.984375,3.0,2.859375,2.859375,1.6464972496032717,1317600
2.84375,2.9375,2.84375,2.90625,1.6734883785247805,740800
2.90625,2.90625,2.890625,2.890625,1.664492130279541,106400
2.875,2.890625,2.859375,2.890625,1.664492130279541,599200
2.875,2.9375,2.859375,2.9375,1.691483736038208,973600
2.9375,2.953125,2.90625,2.9375,1.7207733392715454,735200
2.9375,2.9375,2.90625,2.90625,1.7024664878845217,43200
2.90625,2.921875,2.875,2.90625,1.7024664878845217,144000
2.921875,2.921875,2.90625,2.921875,1.7116209268569946,23200
2.9375,2.984375,2.9375,2.96875,1.7390789985656738,32000
2.984375,3.015625,2.984375,3.015625,1.7665388584136963,181600
3.046875,3.078125,3.0,3.0,1.7573859691619873,104000
3.0,3.03125,2.984375,3.03125,1.7756917476654053,89600
3.046875,3.046875,3.0,3.0,1.7573859691619873,87200
2.984375,2.984375,2.984375,2.984375,1.7482324838638306,3200
2.953125,2.953125,2.875,2.875,1.6841614246368408,495200
2.953125,2.953125,2.890625,2.890625,1.6933144330978394,95200
2.875,2.875,2.84375,2.84375,1.6658546924591064,35200
2.8125,2.8125,2.75,2.765625,1.620089769363403,277600
2.75,2.84375,2.75,2.84375,1.6658546924591064,181600
2.859375,2.859375,2.75,2.765625,1.620089769363403,404800
2.78125,2.796875,2.78125,2.796875,1.6383953094482422,12800
2.8125,2.84375,2.796875,2.84375,1.6658546924591064,37600
2.859375,2.9375,2.84375,2.9375,1.7207733392715454,62400
2.921875,3.078125,2.921875,3.03125,1.7756917476654053,624800
3.046875,3.140625,3.046875,3.109375,1.8214576244354248,421600
3.140625,3.140625,3.03125,3.03125,1.7756917476654053,228000
3.046875,3.046875,3.0,3.03125,1.7756917476654053,206400
3.015625,3.0625,3.015625,3.0625,1.7939982414245603,96800
3.0625,3.0625,3.03125,3.03125,1.7756917476654053,20000
3.0,3.046875,3.0,3.03125,1.7756917476654053,71200
3.03125,3.140625,3.03125,3.125,1.8306092023849487,127200
3.125,3.125,3.015625,3.03125,1.7756917476654053,102400
3.015625,3.015625,2.890625,2.9375,1.7207733392715454,141600
2.9375,2.9375,2.875,2.875,1.6841614246368408,236800
2.890625,2.890625,2.8125,2.8125,1.647548794746399,143200
2.796875,2.796875,2.78125,2.78125,1.629243016242981,144000
2.78125,2.84375,2.78125,2.796875,1.6383953094482422,202400
2.78125,2.78125,2.75,2.75,1.610937237739563,97600
2.75,2.765625,2.75,2.765625,1.620089769363403,16800
2.75,2.75,2.609375,2.625,1.537712574005127,346400
2.640625,2.65625,2.625,2.625,1.537712574005127,76800
2.640625,2.65625,2.640625,2.65625,1.5560191869735718,28800
2.65625,2.671875,2.59375,2.59375,1.5194064378738403,299200
2.59375,2.65625,2.59375,2.65625,1.5560191869735718,97600
2.65625,2.65625,2.625,2.625,1.537712574005127,20800
2.625,2.6875,2.625,2.640625,1.546865463256836,96800
2.640625,2.65625,2.640625,2.640625,1.546865463256836,858400
2.625,2.625,2.59375,2.59375,1.5194064378738403,57600
2.5625,2.5625,2.484375,2.5,1.4644876718521118,171200
2.515625,2.5625,2.453125,2.546875,1.4919474124908447,415200
2.515625,2.53125,2.515625,2.53125,1.482794165611267,124000
2.53125,2.53125,2.5,2.5,1.4644876718521118,319200
2.5,2.515625,2.484375,2.515625,1.4736413955688477,372800
2.515625,2.53125,2.515625,2.53125,1.482794165611267,683200
2.546875,2.578125,2.546875,2.578125,1.5102534294128418,112800
2.5625,2.5625,2.53125,2.546875,1.4919474124908447,392800
2.53125,2.53125,2.5,2.515625,1.4736413955688477,164800
2.5,2.5,2.421875,2.421875,1.4187228679656982,1115200
2.421875,2.515625,2.40625,2.515625,1.4736413955688477,107200
2.5,2.515625,2.5,2.5,1.4644876718521118,15200
2.5,2.5,2.46875,2.46875,1.4461815357208252,48000
2.46875,2.46875,2.421875,2.4375,1.427876591682434,920800
2.4375,2.484375,2.421875,2.4375,1.427876591682434,116000
2.421875,2.421875,2.390625,2.390625,1.4004164934158323,732000
2.390625,2.390625,2.375,2.375,1.3912640810012815,277600
2.390625,2.390625,2.3125,2.328125,1.3638039827346802,528000
2.3125,2.3125,2.140625,2.140625,1.2539682388305664,584000
2.125,2.203125,2.109375,2.125,1.244815230369568,692800
2.125,2.171875,2.109375,2.171875,1.3029310703277588,348000
2.15625,2.234375,2.140625,2.234375,1.340425968170166,840800
2.234375,2.328125,2.234375,2.296875,1.377920150756836,456000
2.296875,2.3125,2.21875,2.21875,1.331051230430603,281600
2.234375,2.296875,2.234375,2.28125,1.368546485900879,377600
2.28125,2.328125,2.28125,2.328125,1.3966671228408811,80800
2.359375,2.421875,2.359375,2.421875,1.452908992767334,47200
2.421875,2.53125,2.421875,2.515625,1.5091509819030762,91200
2.53125,2.546875,2.515625,2.515625,1.5091509819030762,578400
2.515625,2.515625,2.484375,2.484375,1.4904035329818726,300000
2.46875,2.5,2.453125,2.453125,1.4716558456420898,313600
2.453125,2.453125,2.3125,2.3125,1.387294054031372,1104800
2.296875,2.296875,2.25,2.265625,1.3591729402542114,292800
2.265625,2.265625,2.1875,2.1875,1.3123043775558472,2736800
2.203125,2.25,2.15625,2.203125,1.3216787576675415,463200
2.140625,2.21875,2.140625,2.1875,1.3123043775558472,405600
2.203125,2.296875,2.1875,2.25,1.349799394607544,714400
2.265625,2.265625,2.21875,2.234375,1.340425968170166,96800
2.21875,2.234375,2.1875,2.203125,1.3216787576675415,355200
2.203125,2.203125,2.15625,2.171875,1.3029310703277588,604000
2.1875,2.1875,2.09375,2.09375,1.2560628652572632,492800
2.078125,2.21875,2.078125,2.21875,1.331051230430603,704000
2.234375,2.34375,2.234375,2.328125,1.3966671228408811,782400
2.328125,2.34375,2.3125,2.3125,1.387294054031372,241600
2.3125,2.328125,2.28125,2.3125,1.387294054031372,446400
2.3125,2.3125,2.296875,2.296875,1.377920150756836,161600
2.296875,2.328125,2.28125,2.328125,1.3966671228408811,190400
2.3125,2.3125,2.28125,2.296875,1.377920150756836,504800
2.28125,2.28125,2.265625,2.265625,1.3591729402542114,20800
2.265625,2.296875,2.265625,2.296875,1.377920150756836,260800
2.296875,2.328125,2.296875,2.3125,1.387294054031372,311200
2.328125,2.34375,2.3125,2.3125,1.387294054031372,249600
2.3125,2.3125,2.28125,2.28125,1.368546485900879,144000
2.265625,2.265625,2.25,2.265625,1.3591729402542114,835200
2.25,2.296875,2.25,2.265625,1.3591729402542114,67200
2.234375,2.265625,2.234375,2.234375,1.340425968170166,321600
2.25,2.296875,2.25,2.25,1.349799394607544,588800
2.265625,2.28125,2.25,2.25,1.349799394607544,608800
2.234375,2.25,2.234375,2.25,1.349799394607544,488000
2.265625,2.28125,2.265625,2.28125,1.368546485900879,607200
2.28125,2.296875,2.28125,2.28125,1.368546485900879,404800
2.28125,2.328125,2.28125,2.328125,1.3966671228408811,348000
2.328125,2.40625,2.328125,2.390625,1.4341611862182615,348000
2.40625,2.40625,2.390625,2.40625,1.443535566329956,376000
2.4375,2.4375,2.40625,2.40625,1.443535566329956,347200
2.4375,2.46875,2.421875,2.46875,1.4810291528701782,138400
2.5,2.5,2.40625,2.40625,1.443535566329956,122400
2.4375,2.4375,2.421875,2.4375,1.4622827768325806,569600
2.421875,2.421875,2.40625,2.40625,1.443535566329956,46400
2.4375,2.4375,2.375,2.40625,1.443535566329956,394400
2.46875,2.484375,2.453125,2.46875,1.4810291528701782,232000
2.5,2.546875,2.5,2.5,1.4997764825820925,545600
2.5,2.578125,2.5,2.5625,1.53727126121521,618400
2.578125,2.578125,2.5625,2.578125,1.5466450452804563,116800
2.609375,2.734375,2.609375,2.6875,1.6122602224349976,959200
2.625,2.65625,2.609375,2.625,1.5747658014297483,236800
2.625,2.625,2.609375,2.625,1.5747658014297483,324800
2.640625,2.65625,2.640625,2.65625,1.593513250350952,307200
2.65625,2.65625,2.609375,2.609375,1.5653921365737915,172800
2.609375,2.609375,2.578125,2.59375,1.5560181140899658,878400
2.5625,2.5625,2.546875,2.5625,1.53727126121521,109600
2.578125,2.734375,2.578125,2.734375,1.6403807401657104,336000
2.734375,2.734375,2.6875,2.6875,1.6422898769378662,612000
2.671875,2.671875,2.625,2.625,1.6040971279144287,771200
2.609375,2.75,2.609375,2.75,1.6844950914382937,170400
2.734375,2.75,2.734375,2.734375,1.6749236583709717,213600
2.765625,2.78125,2.75,2.765625,1.6940644979476929,141600
2.78125,2.8125,2.78125,2.8125,1.722779393196106,228000
2.8125,2.828125,2.8125,2.828125,1.732348918914795,312000
2.8125,2.828125,2.8125,2.8125,1.722779393196106,39200
2.8125,2.890625,2.8125,2.890625,1.770633578300476,245600
2.921875,2.921875,2.875,2.90625,1.7802042961120603,337600
2.890625,2.890625,2.875,2.875,1.7610629796981812,8800
2.875,2.984375,2.84375,2.875,1.7610629796981812,1366400
3.03125,3.171875,3.0,3.0,1.837629556655884,687200
3.0625,3.09375,3.03125,3.046875,1.866343140602112,511200
3.046875,3.046875,3.015625,3.03125,1.8567724227905276,234400
3.046875,3.046875,3.03125,3.03125,1.8567724227905276,237600
3.046875,3.0625,3.03125,3.046875,1.866343140602112,1008800
3.03125,3.046875,3.03125,3.046875,1.866343140602112,146400
3.0625,3.078125,3.0625,3.0625,1.875914216041565,251200
3.046875,3.078125,3.046875,3.078125,1.8854849338531492,532000
3.078125,3.078125,3.015625,3.015625,1.847201228141785,792800
3.015625,3.015625,2.96875,2.96875,1.8184877634048464,61600
3.0,3.0,2.9375,2.953125,1.808916926383972,42400
2.953125,2.953125,2.90625,2.90625,1.7802042961120603,91200
2.921875,2.921875,2.75,2.796875,1.7132070064544678,1191200
2.796875,2.796875,2.765625,2.765625,1.6940644979476929,261600
2.765625,2.84375,2.6875,2.84375,1.7419202327728271,1236800
2.828125,2.90625,2.8125,2.890625,1.770633578300476,509600
2.90625,3.015625,2.90625,3.0,1.837629556655884,431200
3.0,3.046875,2.953125,3.046875,1.866343140602112,572000
3.0625,3.09375,3.0625,3.09375,1.895056962966919,200800
3.078125,3.15625,3.078125,3.09375,1.895056962966919,946400
3.09375,3.15625,3.078125,3.140625,1.923768758773804,230400
3.140625,3.1875,3.125,3.1875,1.952481031417847,1300800
3.203125,3.25,3.125,3.125,1.914197564125061,1122400
3.140625,3.140625,3.078125,3.125,1.914197564125061,627200
3.125,3.125,3.078125,3.09375,1.895056962966919,368800
3.078125,3.171875,3.078125,3.171875,1.94291090965271,348800
3.140625,3.15625,3.125,3.140625,1.923768758773804,108000
3.15625,3.1875,3.125,3.15625,1.933340549468994,1278400
3.125,3.140625,3.125,3.140625,1.923768758773804,1169600
3.15625,3.1875,3.140625,3.1875,1.952481031417847,816800
3.21875,3.375,3.21875,3.3125,2.02905011177063,1822400
3.3125,3.34375,3.28125,3.3125,2.02905011177063,2077600
3.3125,3.3125,3.21875,3.28125,2.0099072456359863,778400
3.28125,3.40625,3.28125,3.40625,2.086474895477295,438400
3.375,3.375,3.34375,3.34375,2.04819130897522,2042400
3.328125,3.328125,3.296875,3.3125,2.02905011177063,2438400
3.328125,3.328125,3.296875,3.296875,2.0194783210754395,660800
3.3125,3.3125,3.21875,3.234375,1.9811935424804688,673600
3.21875,3.265625,3.21875,3.234375,1.9811935424804688,948800
3.25,3.265625,3.234375,3.234375,1.9811935424804688,417600
3.203125,3.21875,3.203125,3.203125,1.9620518684387207,568000
3.203125,3.21875,3.203125,3.203125,1.9620518684387207,518400
3.21875,3.21875,3.171875,3.21875,1.9716236591339111,224000
3.21875,3.21875,3.125,3.125,1.914197564125061,307200
3.125,3.140625,3.109375,3.140625,1.923768758773804,629600
3.125,3.1875,3.125,3.171875,1.94291090965271,1169600
3.1875,3.1875,3.15625,3.1875,1.952481031417847,1156800
3.21875,3.25,3.203125,3.25,1.990766644477844,694400
3.28125,3.296875,3.25,3.28125,2.0099072456359863,2007200
3.3125,3.328125,3.296875,3.3125,2.02905011177063,771200
3.3125,3.359375,3.3125,3.328125,2.0386195182800293,655200
3.328125,3.34375,3.3125,3.328125,2.0386195182800293,480800
3.34375,3.375,3.328125,3.359375,2.089148759841919,424000
3.390625,3.390625,3.328125,3.328125,2.0697150230407715,568800
3.328125,3.359375,3.328125,3.359375,2.089148759841919,624800
3.390625,3.625,3.390625,3.578125,2.225186347961426,627200
3.59375,3.609375,3.515625,3.53125,2.196035861968994,465600
3.5,3.5,3.390625,3.421875,2.128017902374268,143200
3.4375,3.453125,3.421875,3.4375,2.1377339363098145,45600
3.4375,3.453125,3.390625,3.390625,2.108582735061645,645600
3.390625,3.421875,3.390625,3.40625,2.118299961090088,224000
3.40625,3.484375,3.40625,3.484375,2.1668851375579834,235200
3.5,3.515625,3.46875,3.5,2.176602363586426,112000
3.5,3.609375,3.5,3.609375,2.244619846343994,329600
3.609375,3.609375,3.5625,3.59375,2.234903573989868,66400
3.59375,3.59375,3.53125,3.5625,2.2154698371887207,91200
3.5625,3.578125,3.546875,3.578125,2.225186347961426,84800
3.5625,3.640625,3.5625,3.640625,2.264055013656616,565600
3.640625,3.65625,3.625,3.640625,2.264055013656616,500800
3.625,3.703125,3.625,3.703125,2.3029229640960693,492000
3.6875,3.71875,3.6875,3.71875,2.3126399517059326,398400
3.59375,3.59375,3.375,3.40625,2.118299961090088,268800
3.25,3.265625,3.171875,3.25,2.021129608154297,1166400
3.25,3.515625,3.25,3.515625,2.186318635940552,996000
3.515625,3.5625,3.5,3.546875,2.205753326416016,88000
3.546875,3.5625,3.546875,3.546875,2.205753326416016,2608000
3.5625,3.59375,3.5625,3.59375,2.234903573989868,92800
3.625,3.734375,3.609375,3.734375,2.3223564624786377,684800
3.78125,3.84375,3.734375,3.75,2.33207368850708,1344000
3.71875,3.71875,3.671875,3.6875,2.293206214904785,1498400
3.671875,3.6875,3.578125,3.59375,2.234903573989868,823200
3.5,3.6875,3.5,3.5625,2.2154698371887207,844800
3.625,3.640625,3.5625,3.59375,2.234903573989868,7611200
3.609375,3.640625,3.59375,3.59375,2.234903573989868,1631200
3.578125,3.609375,3.578125,3.578125,2.225186347961426,1412000
3.578125,3.71875,3.578125,3.671875,2.283487319946289,1002400
3.6875,3.75,3.6875,3.75,2.33207368850708,1988000
3.734375,3.796875,3.71875,3.78125,2.3515074253082275,872800
3.8125,3.9375,3.8125,3.9375,2.4486775398254395,1732800
3.90625,3.984375,3.84375,3.875,2.409808397293091,1392800
3.875,3.9375,3.859375,3.90625,2.4292426109313965,740000
3.9375,3.953125,3.875,3.890625,2.4195263385772705,458400
3.90625,3.921875,3.890625,3.921875,2.438960313796997,617600
3.921875,3.96875,3.921875,3.953125,2.4583933353424072,190400
3.953125,4.09375,3.953125,4.078125,2.536130666732788,1150400
4.078125,4.09375,4.0625,4.09375,2.545846462249756,660000
4.09375,4.109375,4.0625,4.078125,2.536130666732788,809600
4.078125,4.109375,4.0625,4.109375,2.5555644035339355,549600
4.140625,4.171875,4.109375,4.125,2.5652809143066406,684000
4.125,4.140625,4.109375,4.109375,2.5555644035339355,557600
4.109375,4.171875,4.09375,4.125,2.5652809143066406,723200
4.125,4.28125,4.125,4.21875,2.623582601547241,565600
4.1875,4.3125,4.1875,4.3125,2.681883811950684,668000
4.328125,4.34375,4.328125,4.34375,2.7013182640075684,808000
4.3125,4.375,4.296875,4.359375,2.711036443710327,662400
4.375,4.46875,4.359375,4.375,2.7207510471343994,898400
4.390625,4.484375,4.390625,4.46875,2.7790536880493164,1256800
4.421875,4.4375,4.203125,4.25,2.6430160999298096,1837600
4.25,4.25,4.109375,4.125,2.5652809143066406,1749600
4.203125,4.234375,4.171875,4.234375,2.633298635482788,276800
4.21875,4.234375,4.15625,4.15625,2.584714651107788,330400
4.140625,4.140625,4.03125,4.03125,2.50697922706604,378400
4.046875,4.078125,4.015625,4.046875,2.516695261001587,772800
4.046875,4.046875,3.953125,3.96875,2.4681107997894287,312000
3.96875,3.96875,3.90625,3.9375,2.4486775398254395,885600
3.953125,4.015625,3.953125,3.984375,2.4778285026550293,649600
3.96875,4.0625,3.96875,4.0,2.519157886505127,266400
3.96875,4.03125,3.90625,3.9375,2.4797956943511963,112000
3.9375,3.953125,3.9375,3.953125,2.4896364212036133,351200
3.9375,3.953125,3.890625,3.9375,2.4797956943511963,412000
3.9375,3.953125,3.921875,3.9375,2.4797956943511963,341600
3.9375,3.9375,3.90625,3.90625,2.460115432739258,205600
3.921875,4.078125,3.921875,4.0625,2.5585200786590576,1151200
4.0625,4.3125,4.0625,4.28125,2.6962873935699463,756000
4.265625,4.265625,4.203125,4.21875,2.656923532485962,209600
4.203125,4.203125,4.140625,4.15625,2.617562294006348,104800
4.140625,4.140625,3.953125,3.953125,2.4896364212036133,365600
3.96875,3.96875,3.9375,3.953125,2.4896364212036133,101600
3.953125,4.015625,3.953125,4.0,2.519157886505127,396800
3.984375,3.984375,3.8125,3.859375,2.430593967437744,318400
3.859375,3.859375,3.71875,3.828125,2.4109127521514893,920800
3.828125,3.90625,3.828125,3.84375,2.420754194259644,348000
3.875,3.875,3.8125,3.8125,2.401071310043335,143200
3.828125,3.875,3.828125,3.875,2.440433979034424,156800
3.875,3.875,3.75,3.75,2.3617100715637207,296800
3.765625,3.78125,3.65625,3.65625,2.3026680946350098,464000
3.625,3.625,3.46875,3.484375,2.194422960281372,1245600
3.53125,3.671875,3.53125,3.65625,2.3026680946350098,1823200
3.625,3.65625,3.5,3.546875,2.2337839603424072,1322400
3.5625,3.625,3.5625,3.625,2.2829878330230717,1669600
3.625,3.625,3.5625,3.5625,2.243624448776245,551200
3.625,3.640625,3.5625,3.578125,2.253465175628662,1320800
3.609375,3.640625,3.59375,3.625,2.2829878330230717,324000
3.609375,3.65625,3.609375,3.65625,2.3026680946350098,257600
3.625,3.640625,3.625,3.625,2.2829878330230717,304000
3.625,3.640625,3.625,3.640625,2.2928290367126465,693600
3.609375,3.640625,3.46875,3.5,2.204264640808105,821600
3.53125,3.59375,3.53125,3.59375,2.263305902481079,536800
3.5625,3.671875,3.5625,3.625,2.2829878330230717,660000
3.609375,3.609375,3.578125,3.59375,2.263305902481079,503200
3.578125,3.609375,3.578125,3.59375,2.263305902481079,96000
3.59375,3.625,3.578125,3.625,2.2829878330230717,230400
3.625,3.625,3.53125,3.546875,2.2337839603424072,539200
3.546875,3.546875,3.53125,3.53125,2.223944187164306,1116800
3.53125,3.578125,3.53125,3.578125,2.253465175628662,721600
3.5625,3.5625,3.421875,3.4375,2.1649014949798584,1191200
3.4375,3.5,3.421875,3.5,2.204264640808105,1249600
3.484375,3.546875,3.484375,3.5,2.204264640808105,167200
3.5,3.515625,3.453125,3.484375,2.194422960281372,580000
3.5,3.546875,3.484375,3.53125,2.223944187164306,374400
3.546875,3.609375,3.484375,3.609375,2.273145914077759,1601600
3.65625,3.703125,3.65625,3.671875,2.312507390975952,151200
3.671875,3.671875,3.609375,3.65625,2.3026680946350098,920000
3.640625,3.640625,3.609375,3.625,2.2829878330230717,406400
3.609375,3.625,3.59375,3.59375,2.263305902481079,402400
3.609375,3.609375,3.5625,3.5625,2.243624448776245,52800
3.59375,3.59375,3.578125,3.59375,2.263305902481079,295200
3.578125,3.578125,3.546875,3.546875,2.2337839603424072,488000
3.5625,3.5625,3.53125,3.546875,2.2337839603424072,960800
3.546875,3.546875,3.515625,3.515625,2.2141032218933105,1008000
3.546875,3.59375,3.53125,3.59375,2.263305902481079,655200
3.578125,3.578125,3.53125,3.546875,2.2337839603424072,97600
3.546875,3.59375,3.53125,3.5625,2.243624448776245,596000
3.578125,3.578125,3.546875,3.546875,2.2337839603424072,639200
3.5625,3.6875,3.5625,3.671875,2.312507390975952,376000
3.6875,3.71875,3.609375,3.609375,2.273145914077759,597600
3.609375,3.6875,3.578125,3.6875,2.3223488330841064,715200
3.6875,3.6875,3.59375,3.609375,2.273145914077759,928800
3.609375,3.609375,3.5625,3.578125,2.253465175628662,333600
3.578125,3.578125,3.46875,3.46875,2.1845831871032715,1617600
3.484375,3.484375,3.375,3.390625,2.1729657649993896,410400
3.390625,3.40625,3.359375,3.40625,2.182981014251709,269600
3.40625,3.484375,3.359375,3.46875,2.2230350971221924,826400
3.4375,3.453125,3.34375,3.34375,2.14292573928833,619200
3.375,3.421875,3.359375,3.390625,2.1729657649993896,1232800
3.390625,3.390625,3.359375,3.375,2.1629538536071777,460000
3.359375,3.484375,3.359375,3.453125,2.213021278381348,1157600
3.453125,3.484375,3.4375,3.46875,2.2230350971221924,132800
3.4375,3.5,3.4375,3.5,2.243062257766724,272800
3.515625,3.59375,3.5,3.59375,2.3031439781188965,540800
3.578125,3.703125,3.578125,3.6875,2.3632259368896484,969600
3.8125,3.875,3.78125,3.78125,2.4233086109161377,1224000
3.734375,3.765625,3.703125,3.75,2.403280258178711,636000
3.765625,3.90625,3.75,3.90625,2.503417730331421,773600
3.90625,4.0,3.890625,3.96875,2.5434730052948,492800
4.0,4.078125,4.0,4.0625,2.603553771972656,1876800
4.046875,4.09375,4.046875,4.09375,2.623582363128662,1044000
4.09375,4.359375,4.09375,4.296875,2.7537591457366943,1448000
4.328125,4.4375,4.328125,4.4375,2.843881368637085,1330400
4.4375,4.515625,4.4375,4.5,2.8839364051818848,1606400
4.5,4.5,4.46875,4.5,2.8839364051818848,1975200
4.5,4.5,4.40625,4.421875,2.833868265151977,756000
4.421875,4.453125,4.359375,4.375,2.8038272857666016,800000
4.359375,4.5,4.359375,4.484375,2.8739237785339355,971200
4.484375,4.484375,4.46875,4.484375,2.8739237785339355,932000
4.46875,4.46875,4.34375,4.34375,2.783799409866333,292800
4.359375,4.40625,4.34375,4.390625,2.8138413429260254,632800
4.421875,4.484375,4.421875,4.4375,2.843881368637085,604800
4.4375,4.515625,4.421875,4.5,2.8839364051818848,3408800
4.5,4.609375,4.5,4.5625,2.923992156982422,1140000
4.59375,4.59375,4.5,4.546875,2.9139769077301025,664000
4.515625,4.515625,4.46875,4.484375,2.8739237785339355,499200
4.484375,4.484375,4.359375,4.359375,2.7938132286071777,259200
4.390625,4.421875,4.359375,4.40625,2.823854446411133,128000
4.4375,4.53125,4.421875,4.4375,2.843881368637085,1396000
4.46875,4.484375,4.4375,4.453125,2.853896379470825,332800
4.46875,4.84375,4.46875,4.78125,3.06418251991272,4088800
4.75,4.78125,4.640625,4.734375,3.034142017364502,913600
4.71875,4.734375,4.6875,4.6875,3.004100799560547,335200
4.703125,4.796875,4.703125,4.78125,3.06418251991272,472000
4.796875,4.796875,4.75,4.78125,3.06418251991272,324000
4.78125,4.8125,4.734375,4.8125,3.0842106342315674,199200
4.8125,4.921875,4.796875,4.890625,3.1342780590057373,213600
4.921875,4.921875,4.796875,4.84375,3.1042375564575195,702400
4.84375,4.875,4.84375,4.875,3.12426495552063,209600
4.859375,4.875,4.84375,4.859375,3.114250898361206,316800
4.875,4.984375,4.859375,4.984375,3.1943604946136475,136800
4.96875,5.0,4.921875,5.0,3.204375028610229,444000
4.984375,5.0,4.96875,4.96875,3.184346914291382,300800
4.984375,5.0,4.96875,4.984375,3.1943604946136475,640800
5.015625,5.015625,4.96875,4.96875,3.184346914291382,100800
4.96875,5.078125,4.96875,4.96875,3.184346914291382,574400
4.90625,4.921875,4.84375,4.84375,3.1042375564575195,1020000
4.84375,4.921875,4.8125,4.90625,3.144292116165161,753600
4.921875,4.984375,4.921875,4.984375,3.1943604946136475,589600
5.0,5.03125,5.0,5.03125,3.2244021892547607,663200
5.03125,5.03125,4.96875,5.015625,3.2143876552581787,558400
5.03125,5.03125,4.984375,5.0,3.204375028610229,537600
4.953125,4.953125,4.859375,4.890625,3.1342780590057373,240800
4.90625,4.90625,4.875,4.90625,3.144292116165161,292800
4.90625,4.90625,4.875,4.875,3.12426495552063,604800
4.84375,4.875,4.8125,4.875,3.12426495552063,860000
4.859375,4.875,4.859375,4.875,3.1631972789764404,24000
4.859375,4.96875,4.859375,4.96875,3.2240264415740967,325600
4.96875,5.03125,4.84375,4.875,3.1631972789764404,1076800
4.890625,4.890625,4.84375,4.84375,3.1429190635681152,447200
4.875,4.921875,4.8125,4.8125,3.1226422786712646,231200
4.828125,4.84375,4.796875,4.84375,3.1429190635681152,356800
4.828125,4.890625,4.828125,4.875,3.1631972789764404,173600
4.90625,5.0625,4.90625,4.984375,3.23416519165039,1133600
5.015625,5.015625,4.875,4.875,3.1631972789764404,185600
4.84375,4.84375,4.671875,4.671875,3.0313968658447266,335200
4.671875,4.671875,4.46875,4.5,2.9198739528656006,786400
4.53125,4.640625,4.515625,4.625,3.000980854034424,367200
4.65625,4.65625,4.625,4.640625,3.0111186504364014,108000
4.625,4.640625,4.625,4.640625,3.0111186504364014,189600
4.65625,4.75,4.625,4.75,3.0820913314819336,383200
4.75,4.96875,4.75,4.921875,3.193611621856689,779200
4.953125,4.984375,4.953125,4.953125,3.2138876914978027,249600
4.921875,4.953125,4.90625,4.921875,3.193611621856689,1332800
4.921875,4.9375,4.921875,4.921875,3.193611621856689,65600
4.921875,5.0,4.921875,4.9375,3.203748941421509,664800
4.921875,4.96875,4.90625,4.921875,3.193611621856689,186400
4.9375,4.9375,4.8125,4.8125,3.1226422786712646,828000
4.78125,4.953125,4.78125,4.9375,3.203748941421509,1120800
4.9375,4.984375,4.90625,4.953125,3.2138876914978027,852000
4.90625,5.09375,4.90625,5.0625,3.2848596572875977,702400
5.0625,5.265625,5.0625,5.171875,3.3558273315429688,931200
5.171875,5.203125,5.15625,5.203125,3.37610387802124,390400
5.203125,5.328125,5.203125,5.296875,3.4369354248046875,340800
5.3125,5.3125,5.1875,5.234375,3.396381378173828,412800
5.21875,5.25,5.21875,5.234375,3.396381378173828,216000
5.234375,5.234375,5.203125,5.21875,3.3862435817718506,400000
5.25,5.25,5.21875,5.234375,3.396381378173828,496000
5.1875,5.25,5.171875,5.1875,3.365966320037842,400800
5.1875,5.203125,5.15625,5.203125,3.37610387802124,188000
5.203125,5.3125,5.203125,5.3125,3.447075366973877,511200
5.296875,5.3125,5.28125,5.3125,3.447075366973877,473600
5.34375,5.4375,5.328125,5.40625,3.507903814315796,619200
5.40625,5.625,5.40625,5.5625,3.6092896461486816,522400
5.5625,5.5625,5.484375,5.515625,3.5788724422454834,403200
5.5,5.515625,5.484375,5.5,3.568737030029297,889600
5.5,5.515625,5.484375,5.5,3.568737030029297,482400
5.484375,5.484375,5.421875,5.4375,3.5281808376312256,277600
5.40625,5.5,5.40625,5.5,3.568737030029297,262400
5.484375,5.484375,5.4375,5.4375,3.5281808376312256,779200
5.40625,5.40625,5.234375,5.234375,3.396381378173828,606400
5.21875,5.21875,5.125,5.125,3.325412511825561,763200
5.125,5.15625,5.125,5.125,3.325412511825561,288800
5.140625,5.203125,5.140625,5.203125,3.37610387802124,219200
5.21875,5.328125,5.21875,5.25,3.4065186977386475,193600
5.28125,5.296875,5.265625,5.265625,3.416658639907837,224800
5.28125,5.359375,5.28125,5.34375,3.4673516750335693,292800
5.34375,5.34375,5.265625,5.265625,3.416658639907837,1112000
5.265625,5.296875,5.265625,5.296875,3.4369354248046875,2466400
5.296875,5.296875,5.0625,5.125,3.325412511825561,637600
5.125,5.125,5.109375,5.125,3.325412511825561,36000
5.125,5.140625,5.125,5.140625,3.335550546646118,204800
5.109375,5.125,4.984375,5.046875,3.2747201919555664,648000
5.0625,5.09375,5.03125,5.09375,3.305134057998657,552000
5.078125,5.078125,5.015625,5.046875,3.2747201919555664,376800
5.0625,5.0625,5.015625,5.046875,3.2747201919555664,100000
5.046875,5.09375,5.0,5.0,3.2443032264709477,437600
4.96875,5.078125,4.96875,5.078125,3.294996500015259,1369600
5.078125,5.1875,5.078125,5.1875,3.365966320037842,955200
5.171875,5.25,5.171875,5.25,3.446380615234375,1352000
5.28125,5.34375,5.28125,5.3125,3.4874117374420166,900000
5.3125,5.3125,5.28125,5.28125,3.4668943881988525,100000
5.28125,5.3125,5.28125,5.28125,3.4668943881988525,538400
5.3125,5.3125,5.21875,5.25,3.446380615234375,338400
5.25,5.265625,5.234375,5.25,3.446380615234375,147200
5.296875,5.296875,5.25,5.28125,3.4668943881988525,417600
5.25,5.3125,5.25,5.3125,3.4874117374420166,713600
5.3125,5.34375,5.3125,5.3125,3.4874117374420166,395200
5.3125,5.3125,5.28125,5.296875,3.4771533012390137,314400
5.296875,5.3125,5.25,5.3125,3.4874117374420166,341600
5.34375,5.34375,5.296875,5.296875,3.4771533012390137,196000
5.265625,5.28125,5.21875,5.25,3.446380615234375,191200
5.25,5.296875,5.234375,5.265625,3.456638813018799,356800
5.265625,5.3125,5.25,5.296875,3.4771533012390137,98400
5.3125,5.328125,5.3125,5.328125,3.4976675510406494,57600
5.328125,5.46875,5.3125,5.46875,3.5899806022644043,1029600
5.484375,5.578125,5.484375,5.5625,3.65152359008789,356000
5.546875,5.65625,5.546875,5.625,3.6925530433654794,400000
5.609375,5.640625,5.609375,5.625,3.6925530433654794,56000
5.625,5.625,5.578125,5.59375,3.6720378398895264,348800
5.609375,5.6875,5.609375,5.6875,3.733579158782959,344800
5.6875,5.75,5.6875,5.75,3.774609088897705,632800
5.78125,6.0,5.78125,6.0,3.9387223720550537,784800
6.0,6.21875,5.984375,6.015625,3.948979377746582,1103200
6.03125,6.03125,5.9375,5.9375,3.897692918777466,226400
5.9375,5.984375,5.9375,5.984375,3.928464412689209,448000
6.0625,6.25,6.0625,6.25,4.102837085723877,640000
6.234375,6.484375,6.234375,6.421875,4.215662956237793,805600
6.4375,6.46875,6.3125,6.3125,4.143862247467041,424000
6.3125,6.453125,6.3125,6.453125,4.236176490783691,914400
6.46875,6.703125,6.453125,6.703125,4.400289535522461,964800
6.703125,6.703125,6.53125,6.5625,4.307976245880127,704000
6.5625,6.578125,6.4375,6.453125,4.236176490783691,753600
6.453125,6.453125,6.25,6.296875,4.133607387542725,817600
6.28125,6.28125,6.03125,6.125,4.020778656005859,627200
6.125,6.25,6.109375,6.21875,4.082320690155029,529600
6.234375,6.328125,6.171875,6.28125,4.123348712921143,888000
6.28125,6.390625,6.28125,6.375,4.1848907470703125,388800
6.375,6.375,6.28125,6.28125,4.123348712921143,286400
6.28125,6.328125,6.28125,6.296875,4.133607387542725,135200
6.296875,6.328125,6.125,6.125,4.020778656005859,236800
6.125,6.125,5.953125,5.953125,3.907950878143311,388800
5.953125,5.984375,5.921875,5.96875,3.918207883834839,533600
5.96875,5.984375,5.953125,5.984375,3.928464412689209,121600
5.984375,6.03125,5.921875,5.921875,3.887437105178833,472800
5.953125,5.96875,5.90625,5.9375,3.897692918777466,633600
5.9375,6.046875,5.921875,6.0,3.9387223720550537,994400
6.0,6.03125,6.0,6.0,3.9387223720550537,152800
5.96875,5.96875,5.890625,5.9375,3.897692918777466,127200
5.9375,5.96875,5.9375,5.96875,3.918207883834839,248000
5.96875,6.03125,5.96875,6.015625,3.948979377746582,218400
6.0,6.03125,5.96875,5.96875,3.918207883834839,99200
5.984375,5.984375,5.953125,5.984375,3.928464412689209,232800
5.96875,6.0,5.953125,5.96875,3.918207883834839,357600
5.953125,6.0,5.953125,5.984375,3.928464412689209,441600
5.984375,5.984375,5.921875,5.9375,3.897692918777466,326400
5.9375,6.453125,5.9375,6.453125,4.236176490783691,1200800
6.453125,6.625,6.453125,6.625,4.349006652832031,755200
6.59375,6.71875,6.59375,6.71875,4.410547256469727,599200
6.71875,6.75,6.640625,6.640625,4.359262466430664,248000
6.65625,6.65625,6.578125,6.578125,4.318234920501709,122400
6.578125,6.578125,6.5,6.53125,4.2874627113342285,114400
6.5,6.5,6.4375,6.484375,4.256690502166748,224000
6.484375,6.484375,6.40625,6.421875,4.255032539367676,245600
6.421875,6.421875,6.25,6.25,4.141153335571289,288000
6.25,6.25,6.125,6.125,4.058329582214356,272800
6.078125,6.109375,5.96875,5.984375,3.965153932571411,826400
6.09375,6.125,6.0,6.03125,3.99621319770813,388000
6.0,6.0,5.828125,5.875,3.8926851749420166,707200
5.875,5.875,5.71875,5.75,3.8098623752594,719200
5.75,5.875,5.484375,5.828125,3.86162543296814,1467200
5.796875,5.796875,5.3125,5.3125,3.519981861114502,1626400
5.4375,5.6875,5.4375,5.5,3.6442158222198486,3216000
5.5,5.5,5.375,5.375,3.561392307281494,928800
5.375,5.421875,5.28125,5.28125,3.499274969100952,901600
5.28125,5.3125,5.0,5.03125,3.3336284160614014,1536800
5.0625,5.1875,5.0625,5.1875,3.437157392501831,1416000
5.1875,5.453125,5.1875,5.453125,3.6131551265716553,1215200
5.421875,5.46875,5.328125,5.34375,3.5406885147094727,412800
5.359375,5.484375,5.34375,5.453125,3.6131551265716553,379200
5.453125,5.578125,5.453125,5.5625,3.685626983642578,553600
5.609375,5.671875,5.578125,5.625,3.727036476135254,540800
5.65625,5.734375,5.625,5.625,3.727036476135254,345600
5.625,5.625,5.53125,5.5625,3.685626983642578,112800
5.5625,5.5625,5.46875,5.46875,3.6235098838806152,207200
5.46875,5.46875,5.1875,5.21875,3.4578630924224854,542400
5.25,5.28125,5.21875,5.265625,3.488919734954834,191200
5.28125,5.40625,5.203125,5.21875,3.4578630924224854,564800
5.203125,5.203125,5.0625,5.203125,3.447508811950684,1202400
5.203125,5.234375,5.140625,5.140625,3.4060986042022705,675200
4.96875,4.984375,4.875,4.9375,3.2715089321136475,827200
5.0,5.203125,4.9375,5.203125,3.447508811950684,1617600
5.203125,5.359375,5.15625,5.296875,3.509626865386963,463200
5.25,5.265625,5.21875,5.265625,3.488919734954834,85600
5.25,5.25,5.078125,5.078125,3.364686965942383,173600
5.109375,5.21875,5.078125,5.09375,3.37503719329834,697600
5.109375,5.15625,5.109375,5.15625,3.416451930999756,556800
5.125,5.125,5.03125,5.03125,3.3336284160614014,94400
4.96875,4.96875,4.828125,4.828125,3.199039936065674,1270400
4.84375,4.859375,4.78125,4.828125,3.199039936065674,457600
4.859375,4.921875,4.828125,4.859375,3.219746351242065,316000
4.84375,4.90625,4.84375,4.859375,3.219746351242065,429600
4.875,4.90625,4.875,4.875,3.230098962783813,142400
4.875,4.90625,4.84375,4.890625,3.240452766418457,308800
4.875,4.953125,4.859375,4.90625,3.2508039474487305,528800
4.890625,4.890625,4.84375,4.859375,3.219746351242065,89600
4.859375,4.859375,4.71875,4.78125,3.1679821014404297,69600
4.796875,4.84375,4.796875,4.828125,3.199039936065674,271200
4.859375,4.859375,4.71875,4.765625,3.157630205154419,102400
4.796875,4.8125,4.734375,4.8125,3.1886870861053467,620800
4.765625,4.765625,4.71875,4.734375,3.136922597885132,128000
4.75,4.84375,4.75,4.78125,3.1679821014404297,565600
4.796875,4.8125,4.734375,4.75,3.147275924682617,200800
4.71875,4.71875,4.40625,4.515625,2.9919819831848145,927200
4.546875,4.546875,4.265625,4.4375,2.9402191638946533,880000
4.453125,4.75,4.40625,4.734375,3.136922597885132,676000
4.703125,4.796875,4.703125,4.75,3.147275924682617,176000
4.6875,4.890625,4.6875,4.859375,3.219746351242065,1060000
4.890625,4.921875,4.8125,4.8125,3.1886870861053467,629600
4.828125,4.890625,4.828125,4.859375,3.219746351242065,648000
4.84375,4.859375,4.828125,4.859375,3.219746351242065,270400
4.859375,4.875,4.828125,4.875,3.230098962783813,112800
4.875,4.875,4.828125,4.875,3.230098962783813,332000
4.84375,4.890625,4.84375,4.890625,3.240452766418457,202400
4.96875,5.25,4.96875,5.203125,3.447508811950684,800000
5.234375,5.484375,5.234375,5.453125,3.6131551265716553,999200
5.46875,5.46875,5.40625,5.4375,3.6028048992156982,704800
5.421875,5.640625,5.421875,5.640625,3.779093027114868,573600
5.59375,5.59375,5.453125,5.5,3.684875965118408,1028800
5.5,5.53125,5.390625,5.40625,3.622065544128418,296000
5.40625,5.421875,5.3125,5.3125,3.559256792068481,10779200
5.28125,5.328125,5.15625,5.15625,3.454571485519409,1295200
5.25,5.3125,5.21875,5.296875,3.548785448074341,1098400
5.3125,5.4375,5.3125,5.4375,3.643002986907959,851200
5.46875,5.609375,5.46875,5.515625,3.695345163345337,1249600
5.515625,5.5625,5.359375,5.359375,3.590660333633423,487200
5.390625,5.421875,5.34375,5.375,3.6011288166046143,354400
5.390625,5.40625,5.3125,5.3125,3.559256792068481,408800
5.3125,5.328125,5.296875,5.3125,3.559256792068481,284000
5.3125,5.40625,5.265625,5.375,3.6011288166046143,873600
5.375,5.5625,5.375,5.546875,3.716279983520508,1322400
5.5,5.515625,5.484375,5.5,3.684875965118408,303200
5.53125,5.671875,5.515625,5.515625,3.695345163345337,787200
5.546875,5.625,5.546875,5.609375,3.758154392242432,700800
5.578125,5.9375,5.578125,5.765625,3.862839460372925,999200
5.8125,5.8125,5.734375,5.75,3.852370262145996,155200
5.78125,5.828125,5.703125,5.71875,3.831433534622192,1171200
5.671875,5.671875,5.609375,5.625,3.768621444702149,363200
5.625,5.75,5.59375,5.734375,3.841900825500488,355200
5.734375,5.734375,5.59375,5.65625,3.789560079574585,272800
5.65625,5.65625,5.5,5.5,3.684875965118408,944800
5.53125,5.71875,5.5,5.6875,3.810494899749756,212800
5.6875,5.6875,5.40625,5.5,3.684875965118408,335200
5.46875,5.53125,5.46875,5.5,3.684875965118408,137600
5.46875,5.484375,5.375,5.375,3.6011288166046143,541600
5.390625,5.46875,5.34375,5.34375,3.580193519592285,538400
5.375,5.390625,5.328125,5.34375,3.580193519592285,437600
5.375,5.40625,5.359375,5.375,3.6011288166046143,83200
5.34375,5.4375,5.34375,5.421875,3.6325347423553462,152000
5.421875,5.4375,5.375,5.4375,3.643002986907959,108800
5.5,5.5625,5.46875,5.46875,3.6639389991760254,848800
5.46875,5.46875,5.375,5.375,3.6011288166046143,57600
5.40625,5.40625,5.34375,5.375,3.6011288166046143,180000
5.34375,5.34375,5.28125,5.3125,3.559256792068481,310400
5.328125,5.34375,5.296875,5.3125,3.559256792068481,92800
5.296875,5.40625,5.296875,5.390625,3.6115972995758057,196800
5.40625,5.40625,5.34375,5.34375,3.580193519592285,268800
5.3125,5.328125,5.234375,5.234375,3.5069141387939453,516800
5.203125,5.203125,4.96875,5.03125,3.370824098587036,609600
5.015625,5.046875,4.921875,4.9375,3.308011531829834,894400
4.953125,5.03125,4.921875,5.015625,3.360353946685791,410400
5.015625,5.1875,5.015625,5.171875,3.4650392532348637,308800
5.21875,5.328125,5.21875,5.28125,3.538318634033203,446400
5.265625,5.296875,5.25,5.28125,3.538318634033203,458400
5.265625,5.515625,5.265625,5.484375,3.6744070053100586,423200
5.53125,5.6875,5.5,5.6875,3.810494899749756,879200
5.71875,5.734375,5.671875,5.71875,3.831433534622192,813600
5.6875,5.8125,5.6875,5.796875,3.883776187896729,1078400
5.6875,5.6875,5.625,5.671875,3.800026893615722,722400
5.59375,5.65625,5.5625,5.625,3.768621444702149,674400
5.609375,5.671875,5.609375,5.625,3.768621444702149,510400
5.609375,5.609375,5.4375,5.4375,3.643002986907959,1590400
5.421875,5.421875,5.25,5.25,3.517380475997925,617600
5.234375,5.328125,5.109375,5.3125,3.559256792068481,567200
5.3125,5.34375,5.265625,5.34375,3.580193519592285,148800
5.3125,5.3125,5.25,5.265625,3.527848243713379,445600
5.28125,5.328125,5.234375,5.25,3.517380475997925,940000
5.3125,5.375,5.21875,5.375,3.6011288166046143,240000
5.375,5.4375,5.34375,5.34375,3.580193519592285,574400
5.328125,5.34375,5.3125,5.34375,3.580193519592285,169600
5.3125,5.3125,5.265625,5.296875,3.58908486366272,698400
5.3125,5.40625,5.3125,5.375,3.642021894454956,1101600
5.375,5.4375,5.359375,5.4375,3.684370994567871,604000
5.390625,5.53125,5.359375,5.53125,3.747894525527954,1280800
5.53125,5.875,5.46875,5.875,3.980815887451172,826400
5.8125,5.8125,5.6875,5.796875,3.927877187728882,1331200
5.78125,5.8125,5.734375,5.734375,3.885528802871704,704000
5.71875,5.71875,5.703125,5.71875,3.87494158744812,727200
5.703125,5.765625,5.703125,5.75,3.896117687225342,480000
5.734375,5.796875,5.71875,5.765625,3.906704187393189,332000
5.765625,5.9375,5.734375,5.9375,4.0231614112854,498400
5.9375,5.96875,5.9375,5.96875,4.044338226318359,1096000
5.953125,6.015625,5.9375,5.953125,4.033751010894775,856800
5.9375,5.9375,5.890625,5.9375,4.0231614112854,535200
5.90625,5.953125,5.890625,5.953125,4.033751010894775,652000
5.9375,5.9375,5.859375,5.875,3.980815887451172,560800
5.875,5.9375,5.875,5.9375,4.0231614112854,358400
5.96875,5.96875,5.921875,5.921875,4.012575626373291,66400
5.921875,6.125,5.921875,6.09375,4.129037380218506,343200
6.109375,6.109375,6.03125,6.078125,4.118449687957764,453600
6.140625,6.140625,6.09375,6.09375,4.129037380218506,632800
6.09375,6.109375,6.03125,6.03125,4.086686611175537,187200
6.046875,6.15625,6.03125,6.140625,4.160797595977783,806400
6.109375,6.125,6.109375,6.125,4.150208950042725,257600
6.140625,6.140625,6.109375,6.109375,4.139622688293457,293600
6.09375,6.09375,5.890625,5.953125,4.033751010894775,1044000
5.96875,5.984375,5.90625,5.96875,4.044338226318359,1417600
5.984375,5.984375,5.890625,5.890625,3.991401910781861,205600
5.90625,5.90625,5.8125,5.828125,3.94905161857605,309600
5.796875,5.8125,5.765625,5.765625,3.906704187393189,208800
5.75,5.75,5.703125,5.703125,3.8643529415130615,287200
5.71875,5.71875,5.65625,5.65625,3.832592725753784,179200
5.59375,5.625,5.515625,5.546875,3.7584805488586426,840800
5.5625,5.59375,5.53125,5.578125,3.7796568870544434,70400
5.546875,5.578125,5.5,5.5,3.726720571517944,752800
5.5,5.546875,5.5,5.515625,3.737307548522949,480800
5.5,5.53125,5.46875,5.46875,3.705545425415039,600000
5.453125,5.453125,5.34375,5.421875,3.673783540725708,136800
5.5,5.5,5.453125,5.46875,3.705545425415039,132800
5.46875,5.578125,5.46875,5.5625,3.769068717956543,863200
5.5625,5.5625,5.4375,5.46875,3.705545425415039,276800
5.4375,5.4375,5.375,5.375,3.642021894454956,304800
5.375,5.578125,5.375,5.578125,3.7796568870544434,165600
5.578125,5.703125,5.578125,5.6875,3.853766441345215,736800
5.703125,5.75,5.703125,5.75,3.896117687225342,476000
5.75,5.78125,5.71875,5.734375,3.885528802871704,292000
5.71875,5.78125,5.71875,5.78125,3.917291164398194,132000
5.75,5.90625,5.75,5.90625,4.001987457275391,384000
5.9375,5.9375,5.75,5.84375,3.959638595581055,174800
5.78125,5.90625,5.78125,5.90625,4.001987457275391,166400
5.96875,5.96875,5.875,5.90625,4.001987457275391,52800
5.96875,5.96875,5.75,5.75,3.896117687225342,197200
5.75,5.75,5.59375,5.71875,3.87494158744812,143200
5.6875,5.75,5.625,5.71875,3.87494158744812,136800
5.65625,5.71875,5.59375,5.71875,3.87494158744812,190800
5.71875,5.75,5.65625,5.75,3.896117687225342,94800
5.6875,5.75,5.59375,5.75,3.896117687225342,440400
5.75,5.75,5.625,5.65625,3.832592725753784,150400
5.6875,5.6875,5.5,5.5,3.726720571517944,72400
5.5,5.6875,5.46875,5.6875,3.853766441345215,182800
5.71875,5.71875,5.59375,5.59375,3.790243625640869,36000
5.5625,5.59375,5.5,5.5,3.726720571517944,24000
5.53125,5.5625,5.5,5.5625,3.789740800857544,51600
5.5625,5.59375,5.5,5.5625,3.789740800857544,98800
5.59375,5.65625,5.40625,5.5,3.747159242630005,277200
5.53125,5.53125,5.4375,5.4375,3.704578399658203,72800
5.40625,5.40625,5.34375,5.375,3.661996364593506,68800
5.4375,5.46875,5.3125,5.46875,3.725867986679077,261600
5.4375,5.4375,5.375,5.375,3.661996364593506,143200
5.40625,5.40625,5.3125,5.3125,3.6194143295288086,31600
5.1875,5.34375,5.1875,5.34375,3.6407060623168954,230800
5.3125,5.3125,5.1875,5.21875,3.5555434226989746,37600
5.25,5.25,5.03125,5.03125,3.4277963638305664,187200
5.0625,5.0625,4.9375,4.96875,3.385215997695923,230000
5.0,5.03125,4.90625,4.9375,3.3639233112335205,551200
4.9375,5.0,4.9375,5.0,3.4065065383911133,342800
5.0,5.0,4.96875,4.96875,3.385215997695923,209600
4.9375,5.0,4.9375,5.0,3.4065065383911133,620000
4.96875,5.0,4.9375,5.0,3.4065065383911133,216400
4.96875,5.03125,4.90625,5.0,3.4065065383911133,430800
4.96875,5.0625,4.9375,5.0,3.4065065383911133,156400
4.96875,5.0,4.78125,4.78125,3.257472038269043,233200
4.84375,4.90625,4.8125,4.84375,3.30005407333374,731600
4.8125,5.0,4.78125,5.0,3.4065065383911133,1479200
5.0625,5.125,5.03125,5.0625,3.4490890502929688,600000
5.03125,5.09375,4.96875,4.96875,3.385215997695923,326800
4.96875,5.03125,4.9375,5.0,3.4065065383911133,558400
5.0,5.0625,4.96875,4.96875,3.385215997695923,71600
5.0,5.0,4.9375,4.9375,3.3639233112335205,300800
4.9375,5.0,4.90625,4.96875,3.385215997695923,148800
4.96875,4.96875,4.90625,4.9375,3.3639233112335205,228400
4.9375,4.953125,4.90625,4.90625,3.342634439468384,330400
4.9375,4.9375,4.8125,4.8125,3.278763771057129,137200
4.875,4.90625,4.78125,4.84375,3.30005407333374,459200
4.875,5.03125,4.875,4.9375,3.3639233112335205,956000
4.96875,4.96875,4.75,4.78125,3.257472038269043,773200
4.8125,4.875,4.65625,4.8125,3.278763771057129,1071600
4.875,4.875,4.625,4.71875,3.2148921489715576,1677600
4.71875,4.8125,4.6875,4.8125,3.278763771057129,976800
4.8125,4.90625,4.75,4.8125,3.278763771057129,1103600
4.78125,4.875,4.78125,4.84375,3.30005407333374,967600
4.90625,4.9375,4.84375,4.9375,3.3639233112335205,250400
4.90625,5.03125,4.875,5.03125,3.4277963638305664,397200
5.0625,5.25,5.0625,5.1875,3.534251928329468,1347600
5.125,5.4375,5.125,5.4375,3.704578399658203,1925200
5.375,5.375,5.125,5.125,3.4916694164276123,1384800
5.1875,5.21875,5.125,5.125,3.4916694164276123,572800
5.15625,5.1875,5.125,5.15625,3.5129590034484863,136400
5.125,5.25,5.125,5.25,3.576833724975586,378800
5.25,5.3125,5.21875,5.25,3.576833724975586,1040800
5.28125,5.375,5.25,5.375,3.661996364593506,429600
5.375,5.375,5.25,5.25,3.576833724975586,374400
5.1875,5.1875,5.0,5.125,3.4916694164276123,248400
5.125,5.125,4.9375,5.0,3.4065065383911133,303200
5.0625,5.0625,5.0,5.0,3.4065065383911133,68000
5.0625,5.21875,5.0625,5.1875,3.534251928329468,456000
5.15625,5.25,5.15625,5.25,3.576833724975586,168800
5.21875,5.21875,5.15625,5.1875,3.534251928329468,271200
5.1875,5.21875,5.15625,5.15625,3.5129590034484863,45600
5.1875,5.1875,5.125,5.15625,3.5129590034484863,135200
5.1875,5.1875,5.0625,5.09375,3.470378875732422,63600
5.09375,5.125,5.0625,5.0625,3.4490890502929688,100000
5.09375,5.09375,4.96875,4.96875,3.385215997695923,256800
4.96875,5.03125,4.96875,5.03125,3.4277963638305664,100400
5.0625,5.125,5.03125,5.0625,3.4490890502929688,187200
5.09375,5.3125,5.09375,5.28125,3.619574069976807,220000
5.28125,5.375,5.28125,5.3125,3.640990734100342,344000
5.3125,5.375,5.3125,5.3125,3.640990734100342,328800
5.25,5.25,5.15625,5.15625,3.5339009761810303,155600
5.21875,5.28125,5.1875,5.25,3.598156213760376,285600
5.25,5.25,5.1875,5.25,3.598156213760376,151200
5.3125,5.3125,5.25,5.25,3.598156213760376,88000
5.25,5.375,5.25,5.375,3.683826446533203,153200
5.34375,5.4375,5.34375,5.34375,3.6624093055725098,236000
5.3125,5.34375,5.21875,5.25,3.598156213760376,174000
5.1875,5.25,5.1875,5.21875,3.5767390727996826,66800
5.25,5.34375,5.1875,5.3125,3.640990734100342,72800
5.3125,5.34375,5.1875,5.25,3.598156213760376,243200
5.25,5.40625,5.21875,5.40625,3.705243587493897,512800
5.375,5.625,5.375,5.53125,3.790913581848145,1548800
5.5,5.6875,5.46875,5.65625,3.876584768295288,638000
5.625,5.625,5.5,5.53125,3.790913581848145,102000
5.53125,5.5625,5.46875,5.5625,3.812332630157471,71200
5.53125,5.53125,5.4375,5.46875,3.7480788230896,349600
5.5,5.5625,5.46875,5.53125,3.790913581848145,54000
5.46875,5.53125,5.46875,5.46875,3.7480788230896,237600
5.5,5.5,5.4375,5.4375,3.726662397384644,145600
5.40625,5.4375,5.375,5.40625,3.705243587493897,126800
5.4375,5.46875,5.4375,5.4375,3.726662397384644,328400
5.4375,5.46875,5.4375,5.4375,3.726662397384644,60800
5.4375,5.46875,5.34375,5.34375,3.6624093055725098,80800
5.3125,5.3125,5.21875,5.25,3.598156213760376,125600
5.25,5.28125,5.21875,5.28125,3.619574069976807,166400
5.21875,5.25,5.15625,5.15625,3.5339009761810303,154800
5.09375,5.09375,4.90625,4.96875,3.4053962230682373,990400
4.90625,4.90625,4.625,4.78125,3.276890993118286,1564800
4.8125,4.84375,4.71875,4.75,3.25547456741333,789600
4.6875,4.71875,4.625,4.6875,3.212639570236206,559600
4.71875,4.71875,4.5,4.59375,3.148386240005493,952400
4.5625,4.59375,4.53125,4.53125,3.105551481246948,45600
4.59375,4.59375,4.46875,4.53125,3.105551481246948,1295600
4.53125,4.625,4.46875,4.59375,3.148386240005493,1277200
4.625,4.625,4.53125,4.53125,3.105551481246948,410400
4.53125,4.65625,4.5,4.625,3.169804096221924,507600
4.625,4.6875,4.625,4.625,3.169804096221924,588000
4.59375,4.65625,4.375,4.375,2.998462200164795,1013600
4.375,4.4375,4.375,4.375,2.998462200164795,664400
4.375,4.5625,4.34375,4.5625,3.1269679069519043,218400
4.53125,4.8125,4.53125,4.6875,3.212639570236206,552800
4.625,4.625,4.5625,4.59375,3.148386240005493,588400
4.625,4.6875,4.625,4.65625,3.19122052192688,519200
4.65625,4.78125,4.65625,4.75,3.25547456741333,408000
4.78125,4.96875,4.78125,4.9375,3.383976459503174,529200
4.96875,4.96875,4.8125,4.84375,3.3197267055511475,116000
4.84375,4.875,4.8125,4.84375,3.3197267055511475,312800
4.84375,4.84375,4.75,4.8125,3.298309564590454,426800
4.75,4.8125,4.625,4.65625,3.19122052192688,305200
4.6875,4.6875,4.59375,4.625,3.169804096221924,634400
4.65625,4.65625,4.53125,4.53125,3.105551481246948,284000
4.5625,4.59375,4.53125,4.5625,3.1269679069519043,29600
4.59375,4.59375,4.4375,4.5,3.08413314819336,209600
4.5,4.59375,4.5,4.59375,3.148386240005493,228800
4.65625,4.8125,4.65625,4.71875,3.2340571880340576,221200
4.71875,4.78125,4.6875,4.6875,3.212639570236206,150400
4.75,4.78125,4.65625,4.75,3.25547456741333,129600
4.75,4.8125,4.6875,4.71875,3.2340571880340576,68400
4.65625,4.6875,4.59375,4.65625,3.19122052192688,260000
4.6875,4.6875,4.5,4.5625,3.1269679069519043,404800
4.53125,4.5625,4.46875,4.46875,3.08298659324646,613600
4.4375,4.4375,4.3125,4.3125,2.975191116333008,289600
4.3125,4.40625,4.3125,4.40625,3.0398666858673096,124800
4.375,4.4375,4.3125,4.3125,2.975191116333008,374400
4.3125,4.40625,4.28125,4.375,3.0183088779449463,66800
4.3125,4.328125,4.28125,4.3125,2.975191116333008,480800
4.3125,4.4375,4.3125,4.40625,3.0398666858673096,437600
4.40625,4.59375,4.40625,4.5625,3.147665023803711,606000
4.5625,4.5625,4.5,4.5,3.1045467853546143,248000
4.53125,4.53125,4.5,4.53125,3.126105546951294,76400
4.46875,4.5,4.375,4.375,3.0183088779449463,128800
4.375,4.5625,4.375,4.53125,3.126105546951294,345600
4.53125,4.53125,4.46875,4.5,3.1045467853546143,129600
4.5,4.625,4.5,4.625,3.190784454345703,145200
4.5625,4.59375,4.5,4.53125,3.126105546951294,512000
4.53125,4.53125,4.4375,4.46875,3.08298659324646,193200
4.4375,4.53125,4.4375,4.4375,3.061427593231201,186400
4.4375,4.5,4.4375,4.46875,3.08298659324646,46000
4.46875,4.5,4.4375,4.46875,3.08298659324646,41600
4.5,4.53125,4.4375,4.5,3.1045467853546143,243600
4.625,4.8125,4.5625,4.75,3.2770214080810547,651200
4.8125,4.8125,4.6875,4.6875,3.2339041233062744,437200
4.71875,4.8125,4.71875,4.75,3.2770214080810547,549600
4.78125,4.78125,4.6875,4.6875,3.2339041233062744,278800
4.71875,4.78125,4.6875,4.78125,3.29858136177063,243600
4.8125,4.90625,4.8125,4.84375,3.3416991233825684,264800
4.84375,4.84375,4.75,4.84375,3.3416991233825684,137600
4.84375,4.96875,4.8125,4.9375,3.4063754081726074,277200
4.9375,5.03125,4.9375,5.0,3.449495792388916,477600
5.0,5.125,5.0,5.125,3.5357348918914795,261200
5.125,5.125,5.09375,5.125,3.5357348918914795,92400
5.09375,5.125,5.0625,5.09375,3.5141725540161133,214400
5.125,5.15625,5.0625,5.15625,3.5572938919067383,348800
5.15625,5.15625,5.09375,5.125,3.5357348918914795,281200
5.125,5.15625,5.09375,5.15625,3.5572938919067383,381600
5.1875,5.21875,5.15625,5.21875,3.6004114151000977,322400
5.1875,5.1875,5.15625,5.15625,3.5572938919067383,70800
5.15625,5.25,5.15625,5.25,3.621970415115357,218800
5.25,5.28125,5.21875,5.25,3.621970415115357,259600
5.25,5.25,5.15625,5.21875,3.6004114151000977,236400
5.25,5.25,5.125,5.125,3.5357348918914795,405200
5.15625,5.28125,5.125,5.21875,3.6004114151000977,442800
5.25,5.28125,5.1875,5.28125,3.643531322479248,179600
5.25,5.25,5.15625,5.15625,3.5572938919067383,170400
5.1875,5.21875,5.15625,5.1875,3.57885217666626,100800
5.1875,5.25,5.1875,5.25,3.621970415115357,101600
5.25,5.34375,5.25,5.3125,3.6650915145874015,317200
5.28125,5.5,5.28125,5.4375,3.7513272762298575,635600
5.40625,5.5,5.3125,5.4375,3.7513272762298575,492800
5.40625,5.5,5.28125,5.34375,3.6866493225097656,426800
5.3125,5.3125,5.25,5.25,3.621970415115357,159600
5.3125,5.375,5.28125,5.3125,3.6650915145874015,349200
5.34375,5.4375,5.3125,5.40625,3.729768753051758,279600
5.40625,5.40625,5.28125,5.3125,3.6650915145874015,696000
5.34375,5.5,5.3125,5.5,3.7944469451904297,314400
5.5,5.5625,5.5,5.5625,3.837565660476685,268800
5.5625,5.6875,5.5625,5.625,3.880686283111572,458000
5.65625,5.875,5.65625,5.875,4.053160667419434,414400
5.90625,6.21875,5.90625,6.15625,4.247190952301025,1336800
6.15625,6.15625,5.96875,5.96875,4.117836952209473,1253600
5.96875,5.96875,5.84375,5.875,4.053160667419434,666000
5.875,5.96875,5.84375,5.90625,4.0747175216674805,1044800
5.875,5.875,5.71875,5.71875,3.9453606605529785,704000
5.6875,5.75,5.625,5.625,3.9011521339416495,227600
5.59375,5.75,5.59375,5.75,4.009223461151123,525600
5.78125,5.78125,5.6875,5.75,4.009223461151123,668400
5.75,5.78125,5.71875,5.78125,4.031013011932373,110400
5.8125,5.875,5.75,5.75,4.009223461151123,191600
5.78125,5.8125,5.75,5.75,4.009223461151123,133200
5.75,5.75,5.5625,5.5625,3.8784878253936768,805200
5.59375,5.625,5.53125,5.625,3.922065973281861,182400
5.625,5.78125,5.625,5.78125,4.031013011932373,356000
5.8125,6.1875,5.8125,6.09375,4.248903274536133,1894000
6.125,6.1875,5.9375,5.9375,4.139959812164307,940800
5.875,5.90625,5.84375,5.84375,4.074590682983398,103200
5.875,5.875,5.71875,5.78125,4.031013011932373,144000
5.78125,5.78125,5.65625,5.65625,3.943856000900269,390800
5.71875,5.71875,5.6875,5.71875,3.9874343872070312,266400
5.75,5.78125,5.71875,5.75,4.009223461151123,529200
5.75,5.75,5.6875,5.75,4.009223461151123,406400
5.75,5.8125,5.75,5.75,4.009223461151123,199600
5.75,5.75,5.6875,5.71875,3.9874343872070312,215200
5.6875,5.75,5.65625,5.65625,3.943856000900269,289200
5.65625,5.6875,5.625,5.65625,3.943856000900269,224000
5.65625,5.8125,5.625,5.8125,4.052801609039307,509200
5.78125,5.9375,5.78125,5.9375,4.139959812164307,706400
5.90625,5.90625,5.78125,5.8125,4.052801609039307,222000
5.8125,5.8125,5.75,5.78125,4.031013011932373,38800
5.8125,5.875,5.78125,5.875,4.096381664276123,279600
5.90625,5.9375,5.84375,5.84375,4.074590682983398,43200
5.84375,5.84375,5.78125,5.8125,4.052801609039307,295600
5.8125,5.8125,5.65625,5.71875,3.9874343872070312,107600
5.71875,5.75,5.71875,5.75,4.009223461151123,130800
5.75,5.75,5.6875,5.6875,3.965643882751465,64000
5.71875,5.90625,5.71875,5.875,4.096381664276123,340800
5.875,6.09375,5.84375,6.09375,4.248903274536133,449200
6.03125,6.125,6.0,6.0625,4.227115631103516,798400
6.0625,6.0625,5.9375,5.96875,4.16174840927124,177600
5.9375,6.03125,5.9375,6.03125,4.205327033996582,303600
6.0625,6.0625,6.0,6.0625,4.227115631103516,254800
6.0625,6.09375,6.03125,6.03125,4.205327033996582,26000
6.0625,6.09375,5.9375,5.96875,4.16174840927124,201600
6.0,6.0,5.96875,6.0,4.183537483215332,137600
6.0,6.0,5.875,5.90625,4.11816930770874,53200
5.9375,5.9375,5.8125,5.8125,4.052801609039307,307600
5.8125,5.8125,5.75,5.78125,4.031013011932373,242000
5.78125,5.8125,5.75,5.78125,4.031013011932373,652000
5.78125,5.78125,5.71875,5.75,4.009223461151123,188000
5.6875,5.71875,5.6875,5.71875,3.9874343872070312,119200
5.78125,5.78125,5.71875,5.78125,4.031013011932373,300400
5.75,5.8125,5.71875,5.8125,4.052801609039307,186800
5.8125,5.8125,5.6875,5.6875,3.965643882751465,190000
5.65625,5.71875,5.59375,5.6875,3.965643882751465,399600
5.71875,5.71875,5.34375,5.34375,3.725962638854981,788000
5.34375,5.34375,5.1875,5.21875,3.638807058334351,494400
5.21875,5.21875,5.0625,5.15625,3.5952272415161133,762800
5.1875,5.34375,5.1875,5.3125,3.704174757003784,2558400
5.28125,5.375,5.25,5.34375,3.725962638854981,352400
5.3125,5.4375,5.3125,5.40625,3.7695424556732178,496800
5.375,5.375,5.21875,5.25,3.660594940185547,1011200
5.25,5.25,5.1875,5.1875,3.6170151233673096,250400
5.21875,5.4375,5.21875,5.4375,3.791330575942993,653600
5.40625,5.46875,5.34375,5.46875,3.813118934631348,317600
5.4375,5.4375,5.28125,5.28125,3.682384490966797,124000
5.25,5.28125,5.21875,5.25,3.660594940185547,680800
5.25,5.25,5.21875,5.25,3.681633710861206,272400
5.28125,5.3125,5.125,5.125,3.5939745903015137,638400
5.125,5.28125,5.0,5.15625,3.61588978767395,582000
5.1875,5.28125,5.1875,5.25,3.703177928924561,335600
5.375,5.4375,5.21875,5.21875,3.681135416030884,817600
5.25,5.28125,5.15625,5.1875,3.659092903137207,286000
5.1875,5.25,5.15625,5.21875,3.681135416030884,460400
5.21875,5.28125,5.21875,5.28125,3.725222826004028,77600
5.25,5.28125,5.1875,5.25,3.703177928924561,132000
5.25,5.375,5.25,5.28125,3.725222826004028,379200
5.28125,5.375,5.21875,5.34375,3.769307851791382,248000
5.3125,5.40625,5.3125,5.375,3.791351079940796,176400
5.40625,5.46875,5.40625,5.4375,3.835435152053833,344000
5.40625,5.40625,5.34375,5.34375,3.769307851791382,244000
5.28125,5.375,5.21875,5.28125,3.725222826004028,758000
5.3125,5.375,5.25,5.375,3.791351079940796,111600
5.34375,5.4375,5.34375,5.40625,3.8133931159973145,217200
5.375,5.375,5.1875,5.21875,3.681135416030884,532800
5.21875,5.25,5.1875,5.21875,3.681135416030884,302000
5.1875,5.34375,5.125,5.34375,3.769307851791382,552400
5.34375,5.34375,5.28125,5.34375,3.769307851791382,558800
5.375,5.40625,5.34375,5.375,3.791351079940796,101600
5.40625,5.4375,5.34375,5.34375,3.769307851791382,305200
5.40625,5.40625,5.3125,5.3125,3.747265577316284,703200
5.3125,5.34375,5.1875,5.1875,3.659092903137207,166000
5.15625,5.3125,5.15625,5.3125,3.747265577316284,349600
5.34375,5.34375,5.25,5.25,3.703177928924561,134400
5.3125,5.34375,5.25,5.25,3.703177928924561,108800
5.21875,5.21875,5.125,5.21875,3.681135416030884,242000
5.1875,5.3125,5.1875,5.28125,3.725222826004028,371600
5.28125,5.5,5.28125,5.40625,3.8133931159973145,542400
5.46875,5.5,5.40625,5.40625,3.8133931159973145,575600
5.4375,5.53125,5.4375,5.53125,3.901564121246338,362400
5.5625,5.71875,5.5625,5.625,3.9676923751831055,317600
5.59375,5.625,5.46875,5.5,3.879521131515503,2007200
5.5,5.53125,5.5,5.5,3.879521131515503,160000
5.5,5.5625,5.46875,5.53125,3.901564121246338,280000
5.53125,5.5625,5.5,5.53125,3.901564121246338,56400
5.625,5.65625,5.625,5.65625,3.989736557006836,290400
5.6875,5.84375,5.6875,5.8125,4.099947929382324,116800
5.84375,5.96875,5.84375,5.96875,4.210162162780762,431200
5.96875,6.03125,5.90625,6.03125,4.254248142242432,545200
5.96875,6.0,5.90625,6.0,4.232202529907227,415600
6.0,6.03125,5.78125,6.03125,4.254248142242432,284000
6.03125,6.09375,5.9375,5.9375,4.188118934631348,248000
5.96875,6.03125,5.9375,6.03125,4.254248142242432,230800
6.0,6.15625,5.90625,6.15625,4.342418193817139,312400
6.125,6.125,6.03125,6.0625,4.276289939880371,547600
6.03125,6.09375,5.9375,6.09375,4.298333644866943,348000
6.0625,6.1875,6.0625,6.1875,4.3644609451293945,221200
6.15625,6.34375,6.125,6.21875,4.386503219604492,490000
6.15625,6.1875,6.0,6.15625,4.342418193817139,504800
6.125,6.125,6.0,6.0,4.232202529907227,284800
6.0625,6.0625,5.9375,6.03125,4.254248142242432,451200
6.03125,6.03125,5.78125,5.875,4.144034385681152,143600
5.84375,5.84375,5.75,5.78125,4.077905178070068,183200
5.78125,5.78125,5.65625,5.65625,3.989736557006836,232000
5.6875,5.75,5.625,5.75,4.055861949920654,229200
5.8125,5.96875,5.625,5.625,3.9676923751831055,263600
5.59375,5.59375,5.4375,5.4375,3.835435152053833,635600
5.46875,5.6875,5.4375,5.59375,3.945648431777954,548400
5.5625,5.6875,5.5625,5.65625,3.989736557006836,304400
5.625,5.65625,5.5625,5.65625,3.989736557006836,230800
5.625,5.625,5.5,5.53125,3.901564121246338,76800
5.5,5.5625,5.5,5.5625,3.923604965209961,259200
5.59375,5.59375,5.5,5.5,3.879521131515503,48000
5.46875,5.46875,5.375,5.375,3.791351079940796,109600
5.375,5.40625,5.34375,5.34375,3.790462493896485,166000
5.375,5.5625,5.34375,5.5,3.9233205318450928,620000
5.5,5.59375,5.5,5.53125,3.9456112384796143,227200
5.53125,5.53125,5.40625,5.46875,3.9010283946990967,188800
5.4375,5.5,5.40625,5.5,3.9233205318450928,398400
5.4375,5.46875,5.25,5.25,3.744988441467285,1966400
5.21875,5.3125,5.21875,5.21875,3.7226972579956055,1503600
5.25,5.25,5.125,5.125,3.655820846557617,333600
5.15625,5.15625,5.0,5.0,3.566656351089477,608000
5.0,5.0,4.90625,4.9375,3.522071599960327,1186800
4.9375,4.9375,4.71875,4.71875,3.3660309314727783,658400
4.75,4.8125,4.6875,4.71875,3.3660309314727783,439600
4.71875,4.875,4.71875,4.875,3.477488279342652,352000
4.9375,5.0,4.9375,4.96875,3.5443637371063232,646800
5.0,5.03125,4.96875,5.0,3.566656351089477,314800
5.0,5.03125,5.0,5.0,3.566656351089477,390800
4.96875,5.0,4.9375,4.9375,3.522071599960327,42800
4.875,4.96875,4.875,4.96875,3.5443637371063232,165600
4.96875,4.96875,4.90625,4.90625,3.4997806549072266,63600
4.9375,5.03125,4.9375,5.03125,3.588948965072632,476400
4.96875,5.0,4.875,5.0,3.566656351089477,907200
5.09375,5.15625,5.03125,5.03125,3.588948965072632,1176400
5.03125,5.03125,4.90625,4.90625,3.4997806549072266,550000
4.96875,5.09375,4.9375,5.09375,3.633528709411621,446800
5.03125,5.0625,4.9375,4.96875,3.5443637371063232,1045600
4.96875,5.03125,4.96875,5.0,3.566656351089477,228000
5.03125,5.4375,5.03125,5.375,3.834155321121216,1046400
5.40625,5.40625,5.375,5.40625,3.856446266174317,906800
5.40625,5.40625,5.1875,5.1875,3.700405359268189,585600
5.21875,5.375,5.1875,5.34375,3.811861276626587,363200
5.375,5.40625,5.34375,5.40625,3.856446266174317,432800
5.40625,5.40625,5.3125,5.3125,3.789570808410645,229200
5.21875,5.21875,5.125,5.1875,3.700405359268189,851200
5.1875,5.28125,5.1875,5.25,3.744988441467285,315200
5.28125,5.28125,5.21875,5.21875,3.7226972579956055,28800
5.28125,5.28125,5.1875,5.25,3.744988441467285,311200
5.25,5.34375,5.25,5.28125,3.76728105545044,308400
5.3125,5.3125,5.125,5.3125,3.789570808410645,1056000
5.3125,5.375,5.3125,5.375,3.834155321121216,461200
5.40625,5.4375,5.40625,5.4375,3.8787379264831534,685200
5.4375,5.5,5.4375,5.5,3.9233205318450928,720400
5.46875,5.65625,5.4375,5.65625,4.03477954864502,18838800
5.8125,5.875,5.71875,5.875,4.190820217132568,5631200
5.875,5.90625,5.8125,5.875,4.190820217132568,2874000
5.875,6.09375,5.84375,6.0,4.279987335205078,3176800
6.03125,6.09375,5.90625,5.90625,4.213109493255615,2280000
6.1875,6.21875,5.875,6.0,4.279987335205078,1721200
5.9375,5.96875,5.8125,5.96875,4.257697105407715,974000
5.96875,6.0625,5.875,6.0625,4.324570178985596,876000
6.0625,6.21875,6.03125,6.03125,4.302277565002441,2001200
6.03125,6.125,6.0,6.03125,4.302277565002441,1896800
6.09375,6.15625,5.9375,6.03125,4.302277565002441,1115600
6.09375,6.09375,6.03125,6.03125,4.302277565002441,490800
6.03125,6.03125,5.9375,5.9375,4.235403537750244,582000
5.90625,6.15625,5.90625,6.15625,4.391444206237793,1150800
6.1875,6.1875,5.9375,6.0,4.279987335205078,677200
6.0625,6.125,6.03125,6.09375,4.346859931945801,579600
6.125,6.125,5.875,5.96875,4.257697105407715,1148000
5.96875,6.0625,5.9375,5.96875,4.257697105407715,1644000
5.9375,6.09375,5.9375,6.0625,4.324570178985596,680800
6.0625,6.125,6.0625,6.125,4.369152545928955,779200
6.15625,6.15625,5.9375,6.0,4.279987335205078,948400
6.0,6.03125,5.84375,5.96875,4.257697105407715,516400
5.8125,5.8125,5.6875,5.78125,4.144776821136475,1618400
5.75,5.8125,5.75,5.8125,4.167182445526123,555200
5.875,5.875,5.75,5.75,4.122373104095459,1159200
5.75,5.8125,5.71875,5.75,4.122373104095459,1683200
5.75,5.78125,5.59375,5.75,4.122373104095459,2281600
5.75,5.78125,5.71875,5.78125,4.144776821136475,504000
5.8125,5.84375,5.75,5.75,4.122373104095459,803200
5.78125,5.875,5.78125,5.875,4.211991310119629,545600
5.84375,5.90625,5.78125,5.78125,4.144776821136475,426400
5.8125,5.96875,5.78125,5.875,4.211991310119629,539600
5.875,5.96875,5.875,5.9375,4.256800651550293,693600
5.90625,5.90625,5.875,5.875,4.211991310119629,1880000
5.90625,6.0,5.875,6.0,4.301606178283691,1636800
6.0,6.03125,5.96875,6.03125,4.324010848999023,970800
6.03125,6.125,5.96875,6.09375,4.368819236755371,650000
6.125,6.3125,6.125,6.21875,4.458435535430908,2182400
6.15625,6.25,6.125,6.15625,4.413628578186035,1204000
6.09375,6.15625,6.0625,6.09375,4.368819236755371,923200
6.09375,6.125,6.03125,6.03125,4.324010848999023,938400
6.09375,6.15625,6.0625,6.125,4.391221523284912,838800
6.125,6.25,6.125,6.1875,4.436030864715576,705600
6.1875,6.28125,6.125,6.25,4.48084020614624,1770400
6.25,6.65625,6.15625,6.53125,4.6824798583984375,4923200
6.59375,6.59375,6.25,6.34375,4.548055648803711,3442800
6.375,6.625,6.375,6.5625,4.704881191253662,1570000
6.53125,6.9375,6.53125,6.90625,4.951327800750732,1637600
7.125,7.125,6.65625,6.75,4.8393073081970215,2182000
6.625,6.71875,6.5625,6.625,4.749691009521484,421200
6.5625,6.71875,6.53125,6.71875,4.816904067993164,1553600
6.6875,6.75,6.59375,6.6875,4.79449987411499,1300800
6.65625,6.75,6.5625,6.71875,4.816904067993164,660000
6.625,6.65625,6.5625,6.59375,4.727288722991943,556400
6.53125,6.625,6.5,6.59375,4.727288722991943,532800
6.59375,6.71875,6.40625,6.40625,4.592860698699951,2225600
6.4375,6.4375,6.1875,6.25,4.48084020614624,956000
6.25,6.34375,6.25,6.25,4.48084020614624,402800
6.25,6.34375,6.1875,6.3125,4.525649547576904,809200
6.25,6.25,6.15625,6.25,4.48084020614624,574000
6.21875,6.40625,6.1875,6.40625,4.592860698699951,830000
6.375,6.40625,6.3125,6.375,4.570457935333252,1132000
6.1875,6.28125,6.1875,6.21875,4.458435535430908,278400
6.1875,6.1875,6.09375,6.15625,4.413628578186035,1366400
6.125,6.15625,6.09375,6.125,4.391221523284912,1108400
6.125,6.1875,6.125,6.1875,4.436030864715576,1038800
6.25,6.40625,6.25,6.3125,4.525649547576904,2724800
6.25,6.25,6.0,6.0625,4.346415042877197,1051600
6.09375,6.375,6.0625,6.375,4.570457935333252,4547200
6.375,6.4375,6.34375,6.34375,4.548055648803711,473600
6.375,6.375,6.1875,6.1875,4.436030864715576,223600
6.1875,6.28125,6.125,6.125,4.391221523284912,936800
6.15625,6.1875,6.09375,6.09375,4.368819236755371,1019600
6.0625,6.28125,6.0625,6.28125,4.503244876861572,907200
6.28125,6.3125,6.25,6.3125,4.525649547576904,216800
6.5,6.59375,6.40625,6.53125,4.6824798583984375,1842000
6.53125,6.65625,6.53125,6.65625,4.7720947265625,1270000
6.59375,6.625,6.5625,6.59375,4.727288722991943,1343600
6.59375,6.6875,6.5625,6.6875,4.79449987411499,752800
6.71875,6.875,6.65625,6.84375,4.906520843505859,1116400
6.78125,6.96875,6.71875,6.9375,4.973731994628906,1519600
6.9375,6.9375,6.75,6.875,4.9289231300354,796800
6.84375,6.84375,6.625,6.8125,4.884117603302002,1262800
6.8125,6.90625,6.8125,6.875,4.9289231300354,923200
6.8125,6.96875,6.78125,6.9375,4.973731994628906,1358000
6.875,6.9375,6.84375,6.875,4.950331687927246,932000
6.875,6.875,6.59375,6.65625,4.792820930480957,1120000
6.59375,6.78125,6.5625,6.75,4.860324859619141,948000
6.78125,6.78125,6.6875,6.75,4.860324859619141,846000
6.75,6.75,6.65625,6.6875,4.815321922302246,1494800
6.6875,6.6875,6.5,6.53125,4.702816486358643,1113200
6.5,6.6875,6.5,6.65625,4.792820930480957,884400
6.65625,6.90625,6.65625,6.8125,4.905326843261719,2457600
6.9375,7.0,6.78125,6.90625,4.972831726074219,1053200
6.90625,7.15625,6.90625,7.03125,5.062838077545166,1069200
6.96875,7.0,6.9375,6.9375,4.995333194732666,536800
6.875,6.9375,6.78125,6.78125,4.882827281951904,486400
6.71875,6.875,6.71875,6.78125,4.882827281951904,705200
6.8125,6.875,6.59375,6.625,4.770320415496826,779600
6.625,6.75,6.5,6.5,4.6803131103515625,808400
6.5625,6.59375,6.46875,6.5625,4.725316047668457,373600
6.625,6.625,6.53125,6.625,4.770320415496826,680000
6.59375,6.65625,6.5625,6.5625,4.725316047668457,504400
6.625,6.65625,6.125,6.21875,4.477800369262695,1395600
6.25,6.34375,6.1875,6.25,4.500301837921143,620400
6.25,6.375,6.25,6.375,4.590307235717773,332000
6.375,6.40625,6.25,6.3125,4.545304775238037,818400
6.25,6.3125,6.21875,6.25,4.500301837921143,796000
6.25,6.28125,6.15625,6.15625,4.432797431945801,1208800
6.1875,6.3125,6.09375,6.3125,4.545304775238037,2372400
6.34375,6.34375,6.25,6.28125,4.522803783416748,379600
6.25,6.28125,6.1875,6.25,4.500301837921143,1017600
6.25,6.375,6.25,6.34375,4.567808151245117,425600
6.3125,6.46875,6.3125,6.4375,4.635313034057617,2660400
6.4375,6.5,6.4375,6.5,4.6803131103515625,552000
6.5625,6.75,6.53125,6.5625,4.725316047668457,1154800
6.5,6.53125,6.4375,6.5,4.6803131103515625,1701200
6.53125,6.53125,6.359375,6.4375,4.635313034057617,554000
6.40625,6.40625,6.3125,6.375,4.590307235717773,613600
6.375,6.375,6.25,6.3125,4.545304775238037,604000
6.34375,6.375,6.25,6.3125,4.545304775238037,493200
6.3125,6.3125,6.28125,6.3125,4.545304775238037,211200
6.40625,6.46875,6.375,6.375,4.590307235717773,654800
6.4375,6.46875,6.40625,6.4375,4.635313034057617,679600
6.4375,6.4375,6.25,6.28125,4.522803783416748,278800
6.21875,6.34375,6.15625,6.34375,4.567808151245117,702800
6.34375,6.34375,6.3125,6.3125,4.545304775238037,241200
6.3125,6.375,6.28125,6.3125,4.545304775238037,761600
6.3125,6.3125,6.25,6.28125,4.522803783416748,1385200
6.28125,6.28125,6.09375,6.1875,4.455297946929932,985600
6.1875,6.21875,6.15625,6.15625,4.432797431945801,1093200
6.09375,6.125,6.0625,6.0625,4.365291595458984,586400
6.0,6.125,5.96875,5.96875,4.297788619995117,1450000
6.03125,6.15625,6.03125,6.0625,4.365291595458984,1416800
6.09375,6.125,6.0625,6.09375,4.387793064117432,1258400
6.09375,6.09375,6.0,6.0,4.320289134979248,650800
6.03125,6.0625,5.96875,6.0,4.320289134979248,948000
6.03125,6.25,5.96875,6.15625,4.432797431945801,2754000
6.21875,6.625,6.21875,6.625,4.770320415496826,5256400
6.59375,6.75,6.53125,6.75,4.860324859619141,4884000
6.8125,6.96875,6.78125,6.96875,5.017836570739746,5409200
6.96875,7.28125,6.90625,7.28125,5.242850303649902,3778800
7.15625,7.25,7.125,7.21875,5.197848320007324,2342000
7.125,7.21875,7.125,7.21875,5.197848320007324,1392000
7.21875,7.3125,7.125,7.28125,5.242850303649902,753600
7.25,7.3125,7.1875,7.25,5.220348358154297,924800
7.25,7.5625,7.25,7.5,5.400362968444824,2440800
7.5,7.65625,7.46875,7.5625,5.445366382598877,3225600
7.46875,7.59375,7.125,7.1875,5.195960998535156,3954400
7.15625,7.21875,7.125,7.15625,5.173367023468018,1191200
7.125,7.34375,7.09375,7.125,5.15077543258667,1718400
7.0625,7.09375,6.5625,6.65625,4.811909198760986,1854400
6.6875,6.96875,6.6875,6.6875,4.834500312805176,2270000
6.75,6.8125,6.65625,6.71875,4.857091903686523,990400
6.6875,6.71875,6.65625,6.6875,4.834500312805176,1322800
6.6875,6.6875,6.5625,6.59375,4.766728401184082,1101600
6.625,6.8125,6.53125,6.8125,4.92486572265625,2303200
6.75,6.75,6.625,6.625,4.789319038391113,327600
6.625,6.78125,6.375,6.375,4.608587265014648,762800
6.40625,6.5625,6.40625,6.53125,4.721546649932861,462800
6.5,6.53125,6.4375,6.5,4.6989521980285645,676800
6.46875,6.53125,6.25,6.3125,4.563408374786377,1988800
6.3125,6.3125,6.125,6.25,4.518226623535156,1733600
6.25,6.375,6.25,6.3125,4.563408374786377,1422800
6.3125,6.46875,6.3125,6.46875,4.676362991333008,1042800
6.46875,6.59375,6.34375,6.59375,4.766728401184082,503200
6.59375,6.65625,6.5,6.65625,4.811909198760986,495200
6.75,6.84375,6.75,6.84375,4.947456359863281,1542800
6.84375,6.875,6.75,6.84375,4.947456359863281,767600
6.875,6.875,6.71875,6.71875,4.857091903686523,634400
6.75,6.75,6.625,6.625,4.789319038391113,167600
6.65625,6.6875,6.625,6.625,4.789319038391113,389600
6.625,6.65625,6.625,6.65625,4.811909198760986,333200
6.625,6.75,6.625,6.75,4.879682540893555,331600
6.6875,6.71875,6.625,6.71875,4.857091903686523,329600
6.65625,6.78125,6.625,6.78125,4.9022746086120605,339200
6.8125,6.8125,6.6875,6.75,4.879682540893555,928800
6.71875,6.71875,6.59375,6.65625,4.811909198760986,837600
6.65625,6.6875,6.59375,6.65625,4.811909198760986,433200
6.59375,6.65625,6.5625,6.625,4.789319038391113,228800
6.625,6.65625,6.5625,6.65625,4.811909198760986,488000
6.625,6.625,6.5,6.5,4.6989521980285645,669600
6.5,6.5,6.46875,6.46875,4.676362991333008,392800
6.46875,6.5,6.4375,6.46875,4.676362991333008,499200
6.4375,6.46875,6.375,6.46875,4.676362991333008,160800
6.5,6.59375,6.5,6.5625,4.74413537979126,1298800
6.53125,6.53125,6.40625,6.46875,4.676362991333008,356400
6.4375,6.5,6.375,6.4375,4.653773784637451,382800
6.4375,6.59375,6.3125,6.46875,4.676362991333008,2431600
6.46875,6.53125,6.40625,6.5,4.6989521980285645,501200
6.5,6.53125,6.46875,6.46875,4.676362991333008,488400
6.46875,6.65625,6.46875,6.5625,4.74413537979126,1305600
6.53125,6.53125,6.28125,6.3125,4.563408374786377,1240800
6.3125,6.3125,6.125,6.125,4.427859783172607,1250400
6.125,6.125,6.03125,6.0625,4.382679462432861,1839600
5.875,5.9375,5.71875,5.875,4.247131824493408,3505600
5.90625,6.09375,5.875,6.0,4.337495803833008,2286800
5.96875,6.09375,5.96875,6.03125,4.360085964202881,2160800
6.03125,6.09375,6.03125,6.03125,4.360085964202881,601200
6.0625,6.0625,6.0,6.03125,4.360085964202881,1021600
6.0,6.0625,5.84375,5.90625,4.269721984863281,1552000
5.90625,6.0,5.78125,6.0,4.337495803833008,1691200
6.03125,6.15625,6.03125,6.125,4.427859783172607,856400
6.0625,6.09375,6.0,6.03125,4.360085964202881,1036000
6.0,6.21875,6.0,6.21875,4.495633125305176,1134400
6.25,6.3125,6.25,6.3125,4.563408374786377,956400
6.3125,6.40625,6.28125,6.375,4.608587265014648,774800
6.375,6.375,6.28125,6.28125,4.540818214416504,691600
6.34375,6.40625,6.28125,6.28125,4.540818214416504,592000
6.28125,6.4375,6.25,6.40625,4.631180763244629,1552000
6.40625,6.46875,6.34375,6.375,4.608587265014648,1220000
6.375,6.375,6.25,6.3125,4.563408374786377,772800
6.21875,6.21875,5.9375,6.0,4.358208656311035,2254800
6.0,6.0625,5.9375,5.9375,4.312809467315674,1258800
5.9375,5.96875,5.8125,5.84375,4.244714260101318,2306000
5.875,6.0,5.84375,6.0,4.358208656311035,1424800
6.0,6.09375,5.96875,6.09375,4.426305294036865,1880000
6.15625,6.25,6.125,6.25,4.539801597595215,1636400
6.25,6.40625,6.21875,6.375,4.6305928230285645,1060800
6.34375,6.375,6.25,6.25,4.539801597595215,722000
6.25,6.3125,6.15625,6.1875,4.494400978088379,1494400
6.15625,6.15625,5.96875,6.0,4.358208656311035,2842800
6.03125,6.09375,6.0,6.0625,4.403606414794922,1593200
6.09375,6.21875,6.09375,6.21875,4.517101287841797,1020000
6.15625,6.1875,6.09375,6.09375,4.426305294036865,995600
6.09375,6.15625,6.03125,6.15625,4.471704483032227,1533600
6.15625,6.375,6.15625,6.375,4.6305928230285645,3300400
6.375,6.53125,6.375,6.4375,4.675995349884033,1713200
6.4375,6.46875,6.25,6.28125,4.562500953674316,1226800
6.25,6.28125,6.1875,6.1875,4.494400978088379,1135200
6.25,6.25,6.1875,6.21875,4.517101287841797,730800
6.21875,6.21875,6.125,6.125,4.449002742767334,395600
6.0,6.0625,6.0,6.0,4.358208656311035,1647200
6.0625,6.15625,6.0,6.15625,4.471704483032227,1212400
6.1875,6.28125,6.15625,6.25,4.539801597595215,1075600
6.3125,6.375,6.25,6.25,4.539801597595215,1186400
6.28125,6.28125,6.25,6.28125,4.562500953674316,1387200
6.28125,6.3125,6.28125,6.3125,4.585199356079102,2227200
6.28125,6.34375,6.21875,6.25,4.539801597595215,1321600
6.25,6.25,6.1875,6.25,4.539801597595215,682000
6.25,6.40625,6.21875,6.40625,4.653294563293457,2281600
6.75,6.78125,6.5625,6.78125,4.925684452056885,3805200
6.78125,6.78125,6.59375,6.625,4.81218957901001,1956000
6.65625,7.0,6.625,6.96875,5.061878204345703,2746800
7.03125,7.09375,6.875,7.03125,5.107273101806641,1406000
6.96875,7.0,6.84375,6.875,4.993780612945557,826800
6.8125,6.875,6.6875,6.6875,4.85758638381958,727600
6.6875,6.71875,6.65625,6.65625,4.834886074066162,344000
6.6875,6.71875,6.53125,6.5625,4.76678991317749,908800
6.59375,6.75,6.5625,6.75,4.902985095977783,1007200
6.6875,6.6875,6.34375,6.5,4.721392154693604,1232400
6.5625,6.625,6.5625,6.625,4.81218957901001,914400
6.5625,6.5625,6.46875,6.46875,4.698692798614502,239600
6.40625,6.46875,6.25,6.40625,4.653294563293457,2831200
6.5625,6.59375,6.4375,6.5,4.721392154693604,1900000
6.5,6.5,6.25,6.3125,4.585199356079102,550400
6.375,6.40625,6.25,6.25,4.539801597595215,944800
6.25,6.3125,6.15625,6.25,4.539801597595215,1152000
6.3125,6.4375,6.3125,6.34375,4.607897758483887,1024800
6.375,6.5,6.3125,6.46875,4.698692798614502,898400
6.5,6.5625,6.40625,6.4375,4.675995349884033,1152400
6.4375,6.5,6.375,6.4375,4.675995349884033,2370000
6.375,6.53125,6.375,6.4375,4.675995349884033,416400
6.59375,6.6875,6.46875,6.46875,4.698692798614502,661600
6.53125,6.53125,6.4375,6.46875,4.698692798614502,219200
6.5,6.53125,6.46875,6.46875,4.698692798614502,368000
6.46875,6.71875,6.46875,6.625,4.81218957901001,616400
6.625,6.65625,6.5,6.5625,4.76678991317749,1130000
6.5625,6.5625,6.1875,6.3125,4.585199356079102,1435600
6.25,6.25,6.15625,6.15625,4.471704483032227,1285600
6.1875,6.28125,6.1875,6.25,4.539801597595215,860000
6.28125,6.34375,6.21875,6.3125,4.585199356079102,1424800
6.3125,6.40625,6.25,6.375,4.6305928230285645,1248400
6.34375,6.4375,6.28125,6.34375,4.607897758483887,1650400
6.34375,6.5,6.3125,6.4375,4.675995349884033,2256800
6.375,6.65625,6.34375,6.65625,4.834886074066162,2746000
6.625,6.75,6.59375,6.625,4.833976268768311,1457600
6.625,6.625,6.53125,6.5625,4.788370609283447,817200
6.5625,6.625,6.5,6.59375,4.811175346374512,1473600
6.59375,6.6875,6.59375,6.625,4.833976268768311,1504000
6.65625,6.71875,6.5625,6.5625,4.788370609283447,1328000
6.59375,6.59375,6.1875,6.21875,4.537551403045654,3205200
6.1875,6.1875,6.03125,6.125,4.469146251678467,5821600
6.125,6.25,6.03125,6.03125,4.4007415771484375,4841600
6.0625,6.125,5.90625,5.9375,4.332334995269775,4544000
5.9375,6.0,5.875,5.90625,4.309532642364502,1410000
5.9375,5.96875,5.84375,5.875,4.286732196807861,1593600
5.9375,6.0,5.84375,5.875,4.286732196807861,2160000
5.90625,5.90625,5.625,5.75,4.195526599884033,760800
5.75,5.84375,5.75,5.84375,4.263933181762695,3844400
5.8125,5.84375,5.75,5.8125,4.241128444671631,2356000
5.875,5.875,5.6875,5.71875,4.17272424697876,1014400
5.71875,5.71875,5.5,5.5,4.013113021850586,2916000
5.5625,5.75,5.5625,5.65625,4.127120018005371,2352800
5.625,5.71875,5.5625,5.5625,4.0587158203125,1579600
5.625,5.65625,5.28125,5.3125,3.876300096511841,2427600
5.3125,5.375,5.0,5.03125,3.6710846424102783,6024000
5.0625,5.21875,5.0625,5.1875,3.785094976425171,2859600
5.21875,5.40625,5.1875,5.28125,3.853499174118042,2171200
5.4375,5.4375,5.25,5.28125,3.853499174118042,1607200
5.375,5.4375,5.21875,5.25,3.8306965827941895,2410400
5.34375,5.4375,5.28125,5.28125,3.853499174118042,1843200
5.28125,5.3125,5.1875,5.28125,3.853499174118042,2238800
5.1875,5.25,5.125,5.15625,3.7622902393341056,1568400
5.15625,5.28125,5.125,5.25,3.8306965827941895,1307200
5.25,5.25,5.15625,5.1875,3.785094976425171,1454000
5.21875,5.28125,5.03125,5.09375,3.716688871383667,1583600
5.15625,5.25,5.0,5.0625,3.6938862800598153,9968800
5.0625,5.125,4.96875,5.03125,3.6710846424102783,1795200
5.09375,5.09375,4.96875,5.0625,3.6938862800598153,1148000
5.0,5.09375,5.0,5.03125,3.6710846424102783,1346000
5.03125,5.1875,5.03125,5.1875,3.785094976425171,1754000
5.1875,5.3125,5.1875,5.21875,3.8078958988189697,1204800
5.21875,5.375,5.125,5.34375,3.89910101890564,1808800
5.3125,5.375,5.21875,5.28125,3.853499174118042,1279600
5.34375,5.40625,5.28125,5.40625,3.944706678390503,1359600
5.40625,5.40625,5.21875,5.25,3.8306965827941895,806000
5.21875,5.21875,5.09375,5.15625,3.7622902393341056,626000
5.15625,5.28125,5.15625,5.21875,3.8078958988189697,932400
5.25,5.28125,5.21875,5.25,3.8306965827941895,630400
5.21875,5.28125,5.21875,5.21875,3.8078958988189697,695200
5.25,5.3125,5.1875,5.25,3.8306965827941895,1374400
5.25,5.3125,5.25,5.28125,3.853499174118042,869200
5.28125,5.3125,5.25,5.3125,3.876300096511841,834400
5.34375,5.34375,5.25,5.28125,3.853499174118042,673600
5.28125,5.3125,5.25,5.25,3.8306965827941895,510800
5.28125,5.28125,5.1875,5.1875,3.785094976425171,868400
5.21875,5.28125,5.21875,5.28125,3.853499174118042,832400
5.3125,5.34375,5.21875,5.21875,3.8078958988189697,817600
5.21875,5.3125,5.1875,5.1875,3.785094976425171,550400
5.1875,5.375,5.1875,5.25,3.8306965827941895,1957600
5.25,5.25,4.90625,4.90625,3.579878568649292,1869600
4.9375,5.0,4.875,4.90625,3.579878568649292,1580400
4.90625,4.90625,4.78125,4.8125,3.511472225189209,1441200
4.84375,4.84375,4.65625,4.65625,3.397463083267212,760800
4.65625,4.65625,4.5,4.59375,3.351861000061035,2062400
4.71875,4.78125,4.65625,4.71875,3.44306755065918,1728800
4.6875,4.6875,4.5,4.53125,3.306258201599121,1031200
4.53125,4.5625,4.375,4.375,3.213522434234619,1359200
4.4375,4.59375,4.4375,4.53125,3.3282928466796875,875200
4.53125,4.59375,4.5,4.5625,3.3512463569641118,1592400
4.5625,4.71875,4.5625,4.65625,3.420107841491699,1586400
4.6875,4.71875,4.625,4.625,3.39715313911438,1415600
4.5625,4.59375,4.5,4.59375,3.374199390411377,1388000
4.65625,4.71875,4.625,4.65625,3.420107841491699,1125600
4.6875,4.78125,4.59375,4.78125,3.5119214057922363,909600
4.78125,4.78125,4.625,4.71875,3.4660143852233887,882800
4.75,4.78125,4.65625,4.6875,3.443059206008911,1203200
4.75,4.75,4.625,4.625,3.39715313911438,542400
4.65625,4.65625,4.46875,4.5,3.305337905883789,908400
4.53125,4.78125,4.53125,4.75,3.488966703414917,782000
4.75,4.75,4.625,4.65625,3.420107841491699,415200
4.6875,4.71875,4.65625,4.6875,3.443059206008911,746800
4.71875,4.8125,4.65625,4.8125,3.5348751544952397,1359600
4.875,4.90625,4.75,4.90625,3.603736400604248,2642800
4.875,4.90625,4.84375,4.84375,3.557828426361084,1274800
4.875,5.0625,4.875,5.03125,3.6955530643463135,2136800
5.0625,5.28125,5.0625,5.1875,3.8103203773498535,1599200
5.25,5.34375,5.15625,5.15625,3.787367105484009,1685600
5.25,5.4375,5.21875,5.40625,3.970998287200928,1002800
5.375,5.4375,5.21875,5.21875,3.8332748413085938,537200
5.21875,5.3125,5.1875,5.25,3.856227397918701,814000
5.25,5.28125,5.1875,5.1875,3.8103203773498535,700000
5.15625,5.21875,5.15625,5.15625,3.787367105484009,333200
5.15625,5.21875,5.125,5.1875,3.8103203773498535,552400
5.1875,5.21875,5.0625,5.1875,3.8103203773498535,1147600
5.15625,5.1875,5.09375,5.1875,3.8103203773498535,718000
5.25,5.375,5.25,5.3125,3.902134895324707,1252400
5.34375,5.34375,5.25,5.28125,3.879183053970337,392400
5.34375,5.34375,5.125,5.15625,3.787367105484009,668400
5.34375,5.40625,5.28125,5.34375,3.925088405609131,1028800
5.34375,5.375,5.25,5.3125,3.902134895324707,394000
5.28125,5.34375,5.25,5.34375,3.925088405609131,318400
5.34375,5.34375,5.25,5.25,3.856227397918701,356400
5.25,5.25,5.125,5.21875,3.8332748413085938,1106800
5.21875,5.21875,5.15625,5.15625,3.787367105484009,550800
5.1875,5.21875,5.15625,5.1875,3.8103203773498535,218000
5.21875,5.21875,5.03125,5.09375,3.7414591312408447,1139600
5.03125,5.0625,4.875,4.875,3.580783605575561,967600
4.90625,4.90625,4.59375,4.75,3.488966703414917,2467600
4.75,4.75,4.6875,4.6875,3.443059206008911,1640800
4.6875,4.8125,4.6875,4.71875,3.4660143852233887,1046800
4.78125,4.84375,4.71875,4.75,3.488966703414917,1245200
4.8125,4.84375,4.71875,4.75,3.488966703414917,1196400
4.71875,5.0,4.71875,4.875,3.580783605575561,1166000
4.84375,4.9375,4.71875,4.71875,3.4660143852233887,1546400
4.75,4.78125,4.71875,4.71875,3.4660143852233887,813600
4.75,4.75,4.6875,4.71875,3.4660143852233887,802400
4.75,4.8125,4.59375,4.59375,3.374199390411377,1644800
4.625,4.65625,4.5,4.5,3.305337905883789,1611600
4.53125,4.625,4.5,4.5,3.305337905883789,1615600
4.46875,4.59375,4.46875,4.53125,3.3282928466796875,2868800
4.5625,4.625,4.53125,4.59375,3.374199390411377,886800
4.59375,4.59375,4.4375,4.53125,3.3282928466796875,2687200
4.53125,4.671875,4.5,4.671875,3.431584358215332,1615600
4.671875,4.734375,4.59375,4.640625,3.4086291790008545,3484000
4.59375,4.65625,4.484375,4.546875,3.3397679328918457,836800
4.5625,4.5625,4.484375,4.546875,3.3397679328918457,958400
4.5,4.5625,4.46875,4.53125,3.3282928466796875,1516000
4.5,4.609375,4.46875,4.5,3.305337905883789,1568800
4.5,4.53125,4.421875,4.53125,3.3282928466796875,2599600
4.5,4.625,4.5,4.578125,3.385136604309082,2845200
4.734375,4.90625,4.640625,4.65625,3.442901372909546,4716800
4.75,4.8125,4.703125,4.8125,3.558435201644897,5268800
4.8125,4.8125,4.734375,4.75,3.512220621109009,2330400
4.84375,4.984375,4.828125,4.96875,3.6739680767059326,2117200
4.953125,4.96875,4.890625,4.921875,3.6393096446990967,1487600
4.890625,4.90625,4.859375,4.875,3.6046488285064697,668800
4.875,4.890625,4.796875,4.84375,3.581541061401367,3178400
4.828125,4.859375,4.734375,4.734375,3.5006673336029053,1210800
4.765625,4.9375,4.765625,4.859375,3.593095302581787,1387200
4.84375,5.0625,4.8125,4.96875,3.6739680767059326,1565200
4.9375,5.0625,4.9375,4.953125,3.662413120269776,1104400
4.984375,5.0,4.875,4.921875,3.6393096446990967,731600
4.9375,5.078125,4.90625,5.0625,3.743289470672608,1110800
5.046875,5.15625,5.03125,5.09375,3.766394853591919,1353600
5.125,5.140625,5.0,5.09375,3.766394853591919,1047600
5.09375,5.21875,5.046875,5.203125,3.847269296646118,1268800
5.234375,5.734375,5.234375,5.6875,4.205423355102539,3988400
5.703125,5.8125,5.625,5.78125,4.27474308013916,3118800
5.8125,6.0625,5.8125,6.0,4.436491012573242,4546800
5.9375,5.9375,5.734375,5.75,4.251636505126953,2805200
5.75,5.875,5.609375,5.71875,4.22852897644043,2554000
5.75,5.75,5.53125,5.53125,4.089890480041504,1123600
5.609375,5.625,5.359375,5.515625,4.0783371925354,2248800
5.765625,5.765625,5.65625,5.6875,4.205423355102539,1758000
5.703125,5.796875,5.578125,5.578125,4.124548435211182,1025600
5.578125,5.59375,5.515625,5.5625,4.112997055053711,1256400
5.578125,5.671875,5.546875,5.65625,4.18231725692749,1192400
5.71875,5.765625,5.671875,5.75,4.251636505126953,1377600
5.6875,5.734375,5.625,5.625,4.15920877456665,732800
5.5625,5.671875,5.484375,5.65625,4.18231725692749,842400
5.6875,5.734375,5.625,5.6875,4.205423355102539,851600
5.65625,5.75,5.625,5.734375,4.240085124969482,648800
5.75,5.796875,5.65625,5.75,4.251636505126953,629200
5.75,5.8125,5.578125,5.8125,4.297849655151367,1627200
5.859375,6.03125,5.859375,6.03125,4.459596157073975,1526800
6.0,6.0625,5.921875,6.0625,4.482704639434815,2116000
6.0625,6.25,6.015625,6.203125,4.586685657501221,1538800
6.21875,6.265625,6.0625,6.125,4.528916835784912,2052400
6.09375,6.125,5.9375,6.015625,4.448044300079346,1785600
5.96875,6.03125,5.84375,5.90625,4.367170333862305,1554000
5.828125,5.953125,5.8125,5.953125,4.40183162689209,704400
5.9375,6.0625,5.90625,5.984375,4.4249372482299805,787200
5.9375,5.9375,5.65625,5.75,4.251636505126953,1441200
5.703125,5.875,5.671875,5.8125,4.297849655151367,1030800
5.8125,5.8125,5.734375,5.78125,4.27474308013916,1168400
5.828125,5.890625,5.75,5.828125,4.309402942657471,1175200
5.84375,5.84375,5.6875,5.71875,4.22852897644043,736400
5.71875,5.75,5.609375,5.75,4.251636505126953,1006800
5.75,5.75,5.5625,5.640625,4.170764923095703,1227600
5.640625,5.703125,5.625,5.703125,4.216976642608643,881600
5.65625,5.6875,5.5625,5.6875,4.205423355102539,1400800
5.625,5.890625,5.5625,5.8125,4.297849655151367,1210800
5.734375,5.796875,5.671875,5.75,4.251636505126953,1124800
5.6875,5.828125,5.625,5.765625,4.263189315795898,3287200
5.703125,5.734375,5.625,5.6875,4.205423355102539,830400
5.625,5.6875,5.5625,5.5625,4.112997055053711,1301200
5.625,5.640625,5.5,5.5625,4.112997055053711,2548000
5.546875,5.625,5.5,5.578125,4.124548435211182,1958000
5.5625,5.671875,5.515625,5.65625,4.18231725692749,1053200
5.625,5.8125,5.625,5.78125,4.27474308013916,1430800
5.75,5.96875,5.71875,5.765625,4.263189315795898,3018800
5.796875,5.84375,5.65625,5.71875,4.22852897644043,809200
5.65625,5.703125,5.640625,5.65625,4.18231725692749,948800
5.65625,5.78125,5.609375,5.625,4.181387424468994,2402800
5.6875,5.734375,5.546875,5.59375,4.158157825469971,979200
5.65625,5.71875,5.53125,5.53125,4.111697196960449,2642800
5.515625,5.5625,5.5,5.5,4.088468074798584,1076000
5.5625,5.609375,5.484375,5.484375,4.076853752136231,1611600
5.46875,5.484375,5.359375,5.40625,4.01878023147583,890400
5.375,5.640625,5.34375,5.609375,4.169773578643799,2530400
5.578125,5.65625,5.515625,5.65625,4.204619407653809,1436400
5.65625,5.71875,5.609375,5.71875,4.251076698303223,1407200
5.609375,5.625,5.53125,5.5625,4.134928226470947,817200
5.59375,5.75,5.578125,5.71875,4.251076698303223,1408000
5.671875,5.671875,5.296875,5.296875,3.937474250793457,1316800
5.0,5.3125,5.0,5.171875,3.844552993774414,3302000
5.1875,5.40625,5.1875,5.28125,3.92585825920105,1778800
4.9375,5.359375,4.9375,5.109375,3.798094511032105,2910400
5.171875,5.3125,5.171875,5.265625,3.9142425060272217,1048400
5.28125,5.375,5.28125,5.328125,3.960702896118164,1388800
5.3125,5.3125,5.25,5.28125,3.92585825920105,1326400
5.28125,5.28125,5.21875,5.28125,3.92585825920105,1605200
5.25,5.3125,5.125,5.1875,3.856168270111084,1626400
5.078125,5.171875,5.046875,5.078125,3.7748639583587646,596800
5.25,5.28125,5.1875,5.203125,3.867785215377808,972400
5.203125,5.203125,5.0,5.046875,3.751634120941162,1226400
5.03125,5.125,4.953125,4.953125,3.681943416595459,2159600
4.96875,5.0,4.859375,4.859375,3.6122541427612314,2653200
4.859375,4.9375,4.765625,4.90625,3.647099018096924,2408800
4.9375,5.03125,4.875,5.03125,3.740020036697388,2226000
5.03125,5.03125,4.859375,4.890625,3.635484933853149,1280000
4.890625,4.921875,4.71875,4.875,3.623869180679321,1766000
4.875,5.0625,4.859375,5.015625,3.728403091430664,2373200
5.015625,5.0625,5.0,5.0,3.7167868614196777,1438000
4.96875,5.015625,4.953125,4.953125,3.681943416595459,2336400
5.0,5.0,4.78125,4.78125,3.5541794300079346,3047200
4.765625,4.78125,4.71875,4.71875,3.507720470428467,1718000
4.734375,4.875,4.734375,4.765625,3.542563199996948,1211200
4.828125,4.890625,4.625,4.65625,3.4612605571746826,2172400
4.75,4.78125,4.703125,4.734375,3.519334316253662,2712800
4.734375,4.796875,4.640625,4.640625,3.4496450424194336,2877600
4.671875,4.78125,4.625,4.75,3.530949354171753,4263200
4.75,4.84375,4.71875,4.796875,3.5657951831817627,5501600
4.796875,4.84375,4.78125,4.828125,3.5890257358551025,1040000
4.8125,4.859375,4.765625,4.765625,3.542563199996948,2011200
4.734375,4.828125,4.734375,4.78125,3.5541794300079346,2288400
4.765625,4.8125,4.71875,4.71875,3.507720470428467,2378800
4.75,4.765625,4.71875,4.75,3.530949354171753,1108000
4.78125,4.84375,4.734375,4.765625,3.542563199996948,2812800
4.765625,4.875,4.765625,4.828125,3.5890257358551025,1244000
4.828125,4.921875,4.828125,4.921875,3.65871262550354,2318400
4.953125,5.03125,4.828125,4.828125,3.5890257358551025,2424000
4.8125,4.90625,4.75,4.859375,3.6122541427612314,1393200
4.90625,5.046875,4.890625,5.03125,3.740020036697388,2550800
5.03125,5.046875,4.984375,5.015625,3.728403091430664,1340000
5.0,5.09375,5.0,5.09375,3.786478757858277,476400
5.0625,5.09375,4.90234375,5.0625,3.763249397277832,466400
5.125,5.171875,5.09375,5.109375,3.798094511032105,1210800
5.09375,5.125,5.0625,5.09375,3.786478757858277,1064400
5.125,5.375,5.109375,5.296875,3.937474250793457,982800
5.265625,5.3125,5.15625,5.15625,3.8329384326934814,1168800
5.15625,5.171875,4.984375,5.0,3.7167868614196777,775600
4.875,5.0,4.8125,4.90625,3.647099018096924,2596800
4.90625,5.03125,4.90625,4.953125,3.681943416595459,1691600
4.9375,5.03125,4.90625,5.0,3.7167868614196777,864000
5.0,5.0,4.75,4.765625,3.542563199996948,1363200
4.71875,4.90625,4.640625,4.828125,3.5890257358551025,846000
4.8125,4.984375,4.8125,4.9375,3.693277597427368,2014000
4.953125,4.953125,4.84375,4.953125,3.704964637756348,627600
5.0,5.0625,4.96875,5.0,3.740026235580444,382800
4.9375,5.15625,4.9375,5.0625,3.786778211593628,940800
5.109375,5.265625,5.09375,5.203125,3.891967535018921,3438800
5.203125,5.3125,5.203125,5.3125,3.973780870437622,2057200
5.171875,5.1875,5.0625,5.078125,3.7984657287597656,1550800
5.078125,5.09375,4.984375,4.984375,3.7283413410186768,888000
4.9375,5.03125,4.921875,4.96875,3.716653823852539,860400
4.921875,5.03125,4.90625,5.03125,3.763403654098511,538000
5.015625,5.078125,4.9375,5.015625,3.751715421676636,432000
5.046875,5.203125,5.046875,5.0625,3.786778211593628,1839200
5.078125,5.078125,4.96875,5.0,3.740026235580444,1220000
5.03125,5.03125,4.8125,4.84375,3.6231517791748047,3060800
4.84375,4.96875,4.84375,4.90625,3.6699023246765137,1744000
4.90625,5.09375,4.90625,5.0625,3.786778211593628,2246400
5.125,5.15625,5.09375,5.125,3.833527088165283,2274000
5.171875,5.25,5.015625,5.25,3.927030086517334,4299200
5.25,5.25,5.140625,5.203125,3.891967535018921,2310000
5.1875,5.203125,5.09375,5.203125,3.891967535018921,1010400
5.234375,5.234375,5.125,5.140625,3.845216035842896,588400
5.171875,5.171875,5.0625,5.140625,3.845216035842896,756400
5.125,5.1875,5.0625,5.140625,3.845216035842896,1111200
5.1875,5.1875,4.984375,4.984375,3.7283413410186768,1417200
5.0,5.15625,4.96875,5.09375,3.8101532459259033,1689200
5.109375,5.125,5.0,5.03125,3.763403654098511,1938800
5.046875,5.125,5.03125,5.0625,3.786778211593628,1436400
5.03125,5.046875,4.90625,4.984375,3.7283413410186768,1859600
5.0,5.09375,4.96875,5.0625,3.786778211593628,1364000
5.09375,5.109375,5.0,5.0625,3.786778211593628,588800
5.125,5.375,5.09375,5.296875,3.9620940685272217,1950400
5.25,5.375,5.203125,5.34375,3.997154712677002,1156800
5.375,5.484375,5.34375,5.46875,4.090655326843262,1378000
5.46875,5.578125,5.40625,5.53125,4.137405872344971,856000
5.5625,5.578125,5.484375,5.5,4.114029884338379,1053600
5.46875,5.484375,5.359375,5.453125,4.078968048095703,756000
5.453125,5.515625,5.3125,5.3125,3.973780870437622,1406000
5.359375,5.359375,5.15625,5.1875,3.880278825759888,985200
5.171875,5.328125,5.171875,5.328125,3.9854676723480233,1217600
5.28125,5.453125,5.25,5.421875,4.0555925369262695,1084000
5.421875,5.515625,5.40625,5.515625,4.12571907043457,1966000
5.53125,5.625,5.53125,5.59375,4.18415641784668,1702800
5.53125,5.546875,5.296875,5.3125,3.973780870437622,866400
5.25,5.28125,5.1875,5.265625,3.9387168884277344,1109600
5.15625,5.484375,5.15625,5.4375,4.06727933883667,981200
5.40625,5.515625,5.328125,5.515625,4.12571907043457,1167600
5.453125,5.625,5.453125,5.578125,4.172469139099121,1210000
6.0,6.03125,5.8125,5.9375,4.441282272338867,3479600
5.90625,5.90625,5.703125,5.71875,4.277656555175781,1218400
5.71875,5.8125,5.6875,5.75,4.301031589508057,905200
5.796875,5.796875,5.65625,5.75,4.301031589508057,499600
5.75,5.75,5.625,5.6875,4.254281044006348,931600
5.71875,5.75,5.640625,5.71875,4.277656555175781,821600
5.78125,5.78125,5.609375,5.734375,4.289345264434815,1879200
5.6875,5.90625,5.6875,5.890625,4.406221389770508,2113600
5.8125,5.90625,5.765625,5.84375,4.371158123016357,2279600
5.78125,5.859375,5.71875,5.84375,4.371158123016357,694000
5.890625,5.921875,5.75,5.765625,4.312718868255615,926400
5.765625,5.875,5.75,5.875,4.394534587860107,1249600
5.84375,5.90625,5.75,5.765625,4.312718868255615,867200
5.75,6.03125,5.75,5.953125,4.452969551086426,7786400
6.125,6.125,5.796875,5.796875,4.358057498931885,4020000
5.859375,5.890625,5.75,5.84375,4.39329719543457,1919200
5.84375,6.0,5.828125,5.96875,4.487272262573242,1676800
5.859375,5.875,5.765625,5.765625,4.334561347961426,687200
5.828125,5.890625,5.78125,5.875,4.416792392730713,3099600
5.875,5.875,5.765625,5.875,4.416792392730713,2513600
5.875,5.9375,5.84375,5.875,4.416792392730713,1166000
5.875,5.875,5.78125,5.78125,4.346312999725342,1386400
5.84375,5.84375,5.5,5.625,4.228843688964844,1807200
5.625,5.6875,5.59375,5.625,4.228843688964844,1050400
5.609375,5.609375,5.484375,5.609375,4.217094898223877,1789600
5.640625,5.71875,5.59375,5.703125,4.287576675415039,1009200
