1.0299999713897705,1.0299999713897705,1.0299999713897705,1.0299999713897705,1.0299999713897705,0
1.0299999713897705,1.0299999713897705,1.0299999713897705,1.0299999713897705,1.0299999713897705,0
1.0299999713897705,1.0299999713897705,1.0299999713897705,1.0299999713897705,1.0299999713897705,0
2.180000066757202,2.180000066757202,2.180000066757202,2.180000066757202,2.180000066757202,0
2.2739999294281006,2.2739999294281006,2.2739999294281006,2.2739999294281006,2.2739999294281006,0
1.9600000381469729,1.9600000381469729,1.9600000381469729,1.9600000381469729,1.9600000381469729,0
2.509999990463257,2.509999990463257,2.509999990463257,2.509999990463257,2.509999990463257,0
225.0,233.6999969482422,213.8999938964844,222.0,222.0,7600
228.0,228.0,219.3000030517578,221.1000061035156,221.1000061035156,3500
224.1000061035156,224.1000061035156,203.00999450683597,203.00999450683597,203.00999450683597,1200
209.1000061035156,277.1700134277344,209.1000061035156,270.0,270.0,18200
319.79998779296875,546.0,303.0,433.5,433.5,60400
519.0,695.8800048828125,435.2999877929688,579.2999877929688,579.2999877929688,63700
568.7999877929688,658.2000122070312,525.2999877929688,577.5,577.5,28600
582.9000244140625,600.0,421.7999877929688,445.5,445.5,25200
445.5,446.1000061035156,396.2999877929688,427.5,427.5,15100
422.1000061035156,444.0,405.2999877929688,416.3999938964844,416.3999938964844,9100
416.7000122070313,432.2999877929688,366.0,373.7999877929688,373.7999877929688,10200
375.0,450.0,330.8999938964844,345.0,345.0,44300
345.6000061035156,360.0,326.3999938964844,342.8999938964844,342.8999938964844,4900
338.70001220703125,348.8999938964844,293.1000061035156,327.6000061035156,327.6000061035156,12100
327.6000061035156,336.0,310.5,325.5,325.5,3000
322.5,325.5,289.5,303.0,303.0,4500
298.79998779296875,357.0,279.8999938964844,330.0,330.0,15900
330.0,331.5,289.5,289.5,289.5,7000
290.70001220703125,312.0,289.5,294.29998779296875,294.29998779296875,7400
291.510009765625,318.29998779296875,288.6600036621094,297.0,297.0,8300
297.0,353.3999938964844,284.3999938964844,352.5,352.5,34600
369.5700073242188,405.0,336.6000061035156,391.5,391.5,42700
381.0,389.3999938964844,348.29998779296875,351.29998779296875,351.29998779296875,14100
360.0,367.5,341.3999938964844,351.6000061035156,351.6000061035156,4700
360.0,367.5,315.0,321.0,321.0,8200
326.1000061035156,326.1000061035156,296.19000244140625,321.0,321.0,5100
319.5,325.5,303.0,314.3999938964844,314.3999938964844,2600
312.0,313.20001220703125,300.0,305.9700012207031,305.9700012207031,2600
314.3999938964844,314.3999938964844,289.5,292.5,292.5,5300
289.5,301.8900146484375,285.0,285.6000061035156,285.6000061035156,3400
287.1000061035156,324.0,287.1000061035156,301.20001220703125,301.20001220703125,19200
316.20001220703125,316.5,301.79998779296875,311.1000061035156,311.1000061035156,3300
309.0,309.0,259.5,278.3999938964844,278.3999938964844,5800
278.1000061035156,278.1000061035156,244.0500030517578,264.0,264.0,6400
312.0,318.0,288.0,298.5,298.5,23900
286.79998779296875,291.0,267.0,281.1000061035156,281.1000061035156,4800
279.8999938964844,286.5,258.0,273.29998779296875,273.29998779296875,6700
270.9599914550781,275.6700134277344,255.3600006103516,271.20001220703125,271.20001220703125,2700
266.760009765625,270.0,260.1000061035156,260.70001220703125,260.70001220703125,1700
262.5,264.0,240.3000030517578,243.3000030517578,243.3000030517578,3100
240.0,246.4499969482422,210.3000030517578,211.5,211.5,5100
211.5,216.80999755859372,186.3000030517578,198.0,198.0,6700
199.8000030517578,221.6999969482422,187.1999969482422,213.0,213.0,4800
213.3000030517578,235.5,206.3999938964844,214.8000030517578,214.8000030517578,3100
210.3000030517578,225.0,210.3000030517578,217.8000030517578,217.8000030517578,3200
180.6000061035156,209.8500061035156,172.5,202.5,202.5,4200
190.8000030517578,230.6999969482422,189.80999755859372,202.5,202.5,1500
195.0,217.1999969482422,184.8000030517578,196.1999969482422,196.1999969482422,700
203.3999938964844,205.8000030517578,183.8999938964844,184.5,184.5,1900
179.6999969482422,184.7400054931641,174.0,177.3000030517578,177.3000030517578,1200
172.5,183.6000061035156,172.5,180.3000030517578,180.3000030517578,900
179.30999755859375,184.5,179.30999755859375,182.1000061035156,182.1000061035156,300
184.5,207.8999938964844,184.5,204.0,204.0,1600
210.0,210.0,181.5,187.5,187.5,1000
196.1999969482422,204.0,186.0,195.3000030517578,195.3000030517578,1000
204.6000061035156,204.6000061035156,183.57000732421875,186.0,186.0,1100
181.5,192.8999938964844,181.5,186.0,186.0,400
193.5,195.0,186.3000030517578,194.6999969482422,194.6999969482422,400
198.0,198.0,183.3000030517578,186.6000061035156,186.6000061035156,700
186.69000244140625,201.6000061035156,183.3000030517578,201.6000061035156,201.6000061035156,1300
201.0,210.0,191.6999969482422,205.5,205.5,2300
210.0,230.1000061035156,205.97999572753903,221.3999938964844,221.3999938964844,3600
228.0,229.1999969482422,216.3000030517578,223.5,223.5,1300
230.3999938964844,234.8999938964844,221.63999938964844,228.0,228.0,1000
217.5,234.8999938964844,217.5,227.3999938964844,227.3999938964844,800
228.0,228.0,214.1999969482422,214.1999969482422,214.1999969482422,1200
225.0,236.1000061035156,219.6000061035156,222.8999938964844,222.8999938964844,2300
223.22999572753903,233.6999969482422,197.3999938964844,197.3999938964844,197.3999938964844,2200
204.0,210.0,181.5,182.1000061035156,182.1000061035156,2500
181.8000030517578,195.83999633789065,180.8999938964844,186.3000030517578,186.3000030517578,3300
189.92999267578125,198.5399932861328,183.92999267578125,190.8000030517578,190.8000030517578,800
190.5,193.5,187.1999969482422,192.3000030517578,192.3000030517578,1200
195.0,199.1999969482422,187.5,199.1999969482422,199.1999969482422,1400
192.0,194.75999450683597,186.8999938964844,189.0,189.0,700
192.6000061035156,193.1999969482422,174.0,180.3000030517578,180.3000030517578,1500
193.5,193.5,179.39999389648438,185.1000061035156,185.1000061035156,900
178.5,182.8800048828125,153.60000610351562,180.6000061035156,180.6000061035156,1500
180.6000061035156,180.6000061035156,157.8300018310547,180.0,180.0,1000
183.6000061035156,195.8999938964844,173.10000610351562,173.10000610351562,173.10000610351562,1500
174.60000610351562,177.17999267578125,165.60000610351562,174.0,174.0,500
167.39999389648438,176.82000732421875,167.10000610351562,169.5,169.5,400
169.5,170.33999633789062,159.0,164.10000610351562,164.10000610351562,800
162.60000610351562,170.10000610351562,161.10000610351562,167.6999969482422,167.6999969482422,300
163.8000030517578,165.89999389648438,156.24000549316406,159.0,159.0,1100
158.10000610351562,158.10000610351562,137.10000610351562,150.0,150.0,1200
145.1999969482422,148.8000030517578,123.3000030517578,133.8000030517578,133.8000030517578,1400
141.0,141.0,117.9000015258789,120.0,120.0,3600
119.0999984741211,123.5999984741211,108.9000015258789,118.5,118.5,1500
117.9000015258789,120.0,110.0999984741211,111.0,111.0,1000
111.9000015258789,115.1999969482422,109.5,110.0999984741211,110.0999984741211,1800
118.5,118.5,111.0,111.0,111.0,1000
111.0,111.1500015258789,105.36000061035156,105.95999908447266,105.95999908447266,800
106.6500015258789,107.4000015258789,97.5,97.5,97.5,2600
93.0,93.83999633789062,82.19999694824219,86.69999694824219,86.69999694824219,3900
87.5999984741211,87.5999984741211,77.0999984741211,77.0999984741211,77.0999984741211,2600
76.5,87.0,76.5,78.5999984741211,78.5999984741211,2300
79.5,81.0,75.9000015258789,80.4000015258789,80.4000015258789,1900
80.69999694824219,100.9499969482422,80.69999694824219,92.4000015258789,92.4000015258789,6600
80.69999694824219,99.0,80.69999694824219,89.4000015258789,89.4000015258789,2600
101.6999969482422,101.6999969482422,88.5,99.5999984741211,99.5999984741211,2500
102.0,102.3000030517578,95.0999984741211,97.1999969482422,97.1999969482422,1000
98.4000015258789,98.4000015258789,85.5,85.5,85.5,1200
94.1999969482422,134.39999389648438,94.1999969482422,124.1999969482422,124.1999969482422,17500
139.1999969482422,142.5,121.1999969482422,127.1999969482422,127.1999969482422,15000
212.1000061035156,342.0,166.8000030517578,265.5,265.5,291600
243.0,262.5,187.5,187.5,187.5,28200
181.8000030517578,224.6999969482422,172.5,199.5,199.5,14700
205.1999969482422,205.5,182.0399932861328,199.5,199.5,10300
197.6999969482422,199.5,176.97000122070312,188.6999969482422,188.6999969482422,7500
179.6999969482422,186.50999450683597,160.1999969482422,165.3000030517578,165.3000030517578,5100
162.0,162.0,150.0,152.6999969482422,152.6999969482422,3500
160.1999969482422,162.0,140.39999389648438,144.0,144.0,5100
147.0,147.0,132.3000030517578,141.0,141.0,3600
135.3000030517578,136.8000030517578,126.0,133.5,133.5,3900
132.60000610351562,140.39999389648438,121.5,125.4000015258789,125.4000015258789,10700
126.0,134.39999389648438,120.0,127.5,127.5,5000
130.1999969482422,133.1999969482422,124.5,130.1999969482422,130.1999969482422,2400
130.5,130.5,114.38999938964844,116.4000015258789,116.4000015258789,5000
116.6999969482422,120.3000030517578,105.0,109.8000030517578,109.8000030517578,6000
118.5,123.5999984741211,84.0,87.30000305175781,87.30000305175781,33500
65.0999984741211,70.19999694824219,62.09999847412109,66.30000305175781,66.30000305175781,121200
70.5,72.0,65.4000015258789,68.4000015258789,68.4000015258789,29300
69.0,72.0,67.5,67.80000305175781,67.80000305175781,31600
73.5,78.0,67.5,71.69999694824219,71.69999694824219,123800
73.80000305175781,88.5,69.30000305175781,83.4000015258789,83.4000015258789,142500
95.4000015258789,107.6999969482422,90.0,95.4000015258789,95.4000015258789,319400
99.3000030517578,103.1999969482422,85.19999694824219,94.8000030517578,94.8000030517578,79600
90.0,97.5,84.0,93.5999984741211,93.5999984741211,40300
91.1999969482422,93.0,87.0,87.5999984741211,87.5999984741211,19400
87.5999984741211,87.87000274658203,78.0,81.5999984741211,81.5999984741211,26900
85.5,85.5,78.5999984741211,80.4000015258789,80.4000015258789,24800
79.5,86.4000015258789,77.91000366210938,83.4000015258789,83.4000015258789,17700
84.9000015258789,86.37000274658203,80.4000015258789,85.19999694824219,85.19999694824219,16700
84.0,101.4000015258789,84.0,94.5,94.5,64300
93.9000015258789,111.0,90.0,106.8000030517578,106.8000030517578,92900
105.0,112.5,97.1999969482422,100.8000030517578,100.8000030517578,49800
103.5,123.0,90.3000030517578,118.8000030517578,118.8000030517578,64700
123.3000030517578,133.8000030517578,115.8000030517578,122.4000015258789,122.4000015258789,77100
121.5,128.39999389648438,108.0,123.9000015258789,123.9000015258789,53100
120.5999984741211,124.5,115.5,116.8499984741211,116.8499984741211,26700
115.8000030517578,118.47000122070312,106.5,112.5,112.5,22800
110.0999984741211,113.12999725341795,105.18000030517578,109.5,109.5,17900
106.8000030517578,121.1999969482422,106.8000030517578,118.1999969482422,118.1999969482422,25400
120.0,120.0,113.0999984741211,114.3000030517578,114.3000030517578,14800
114.3000030517578,123.5999984741211,112.5,117.0,117.0,20200
116.6999969482422,119.0999984741211,112.5,117.5999984741211,117.5999984741211,16000
118.8000030517578,118.8000030517578,112.5,115.5,115.5,16000
113.4000015258789,115.5,108.5999984741211,111.5999984741211,111.5999984741211,16300
115.5,115.5,109.5,111.9000015258789,111.9000015258789,9000
111.9000015258789,116.43000030517578,109.5,111.5999984741211,111.5999984741211,14700
112.5,113.6999969482422,108.3000030517578,110.4000015258789,110.4000015258789,12100
111.3000030517578,111.3000030517578,93.3000030517578,106.1999969482422,106.1999969482422,17500
103.5,107.0999984741211,102.0,105.9000015258789,105.9000015258789,5500
105.9000015258789,108.0,99.0,105.9000015258789,105.9000015258789,11400
107.4000015258789,121.5,105.36000061035156,119.6999969482422,119.6999969482422,42500
123.3000030517578,130.47000122070312,122.0999984741211,123.3000030517578,123.3000030517578,34300
130.8000030517578,141.3000030517578,124.5,134.6999969482422,134.6999969482422,61600
141.89999389648438,148.5,135.0,147.89999389648438,147.89999389648438,67200
159.0,168.89999389648438,149.10000610351562,158.39999389648438,158.39999389648438,118600
154.5,159.0,141.3000030517578,143.39999389648438,143.39999389648438,51400
136.8000030517578,138.0,120.62999725341795,132.60000610351562,132.60000610351562,44100
138.0,149.6699981689453,127.5,142.1999969482422,142.1999969482422,45300
142.1999969482422,142.5,132.0,133.8000030517578,133.8000030517578,21500
132.0,132.60000610351562,121.5,128.6999969482422,128.6999969482422,25600
123.0,137.39999389648438,123.0,127.8000030517578,127.8000030517578,19500
122.0999984741211,127.44000244140624,113.6999969482422,123.0,123.0,27200
121.5,128.39999389648438,118.5,122.4000015258789,122.4000015258789,21000
120.3000030517578,122.37000274658205,115.9499969482422,117.9000015258789,117.9000015258789,9700
116.0999984741211,118.47000122070312,102.0,108.9000015258789,108.9000015258789,24600
109.5,117.0,103.52999877929688,114.0,114.0,11900
110.0999984741211,118.8000030517578,109.5,113.6999969482422,113.6999969482422,11900
116.4000015258789,123.0,113.7300033569336,120.3000030517578,120.3000030517578,12000
121.5,123.3000030517578,117.62999725341795,121.5,121.5,9000
120.9000015258789,122.66999816894533,115.52999877929688,117.5999984741211,117.5999984741211,8000
117.0,119.4000015258789,114.5999984741211,117.9000015258789,117.9000015258789,8100
116.0999984741211,119.6999969482422,115.8000030517578,117.0,117.0,6600
115.5,117.9000015258789,111.0,112.8000030517578,112.8000030517578,10300
112.1999969482422,127.1999969482422,111.5999984741211,117.5999984741211,117.5999984741211,21400
119.6999969482422,121.8000030517578,114.5999984741211,115.1999969482422,115.1999969482422,14200
115.5,119.0999984741211,112.5,115.1999969482422,115.1999969482422,10000
123.0,146.6999969482422,120.5999984741211,138.3000030517578,138.3000030517578,100900
144.3000030517578,159.60000610351562,138.60000610351562,143.39999389648438,143.39999389648438,86300
140.10000610351562,147.89999389648438,138.0,147.3000030517578,147.3000030517578,20500
161.39999389648438,165.60000610351562,154.8000030517578,162.0,162.0,53400
163.5,163.5,144.89999389648438,156.89999389648438,156.89999389648438,47900
152.6999969482422,158.39999389648438,147.60000610351562,154.5,154.5,54000
135.3000030517578,140.6999969482422,118.5,124.5,124.5,66800
135.0,135.0,121.5,126.0,126.0,28500
130.5,131.6999969482422,122.4000015258789,126.5999984741211,126.5999984741211,18000
120.3000030517578,124.8000030517578,116.6999969482422,121.5,121.5,21500
117.3000030517578,120.93000030517578,115.37999725341795,118.1999969482422,118.1999969482422,19000
116.6999969482422,122.0999984741211,116.6999969482422,121.8000030517578,121.8000030517578,16300
121.5,121.5,115.5,118.1999969482422,118.1999969482422,18600
114.3000030517578,116.66999816894533,108.5999984741211,111.5999984741211,111.5999984741211,21600
111.9000015258789,114.0,108.0,113.0999984741211,113.0999984741211,12500
108.5999984741211,112.5,108.5999984741211,111.3000030517578,111.3000030517578,12000
110.4000015258789,111.5999984741211,104.0999984741211,108.0,108.0,21500
106.1999969482422,107.66999816894533,97.1999969482422,99.9000015258789,99.9000015258789,25600
93.9000015258789,102.0,93.9000015258789,97.5,97.5,10300
99.5999984741211,101.6999969482422,93.9000015258789,96.5999984741211,96.5999984741211,16300
94.5,98.04000091552734,87.5999984741211,91.8000030517578,91.8000030517578,16100
90.0,90.77999877929688,87.9000015258789,89.0999984741211,89.0999984741211,10700
89.0999984741211,89.69999694824219,84.0,85.80000305175781,85.80000305175781,8900
85.19999694824219,106.1999969482422,84.9000015258789,104.0999984741211,104.0999984741211,25500
100.5,106.1999969482422,93.0,101.4000015258789,101.4000015258789,12700
102.5999984741211,105.9000015258789,102.0,104.4000015258789,104.4000015258789,6300
102.9000015258789,103.47000122070312,93.5999984741211,96.9000015258789,96.9000015258789,7600
96.9000015258789,98.4000015258789,93.9000015258789,94.8000030517578,94.8000030517578,3100
94.8000030517578,103.16999816894533,92.4000015258789,97.5,97.5,12900
98.4000015258789,101.19000244140624,96.0,96.0,96.0,5300
96.5999984741211,100.5,96.33000183105467,99.5999984741211,99.5999984741211,3100
96.9000015258789,99.5999984741211,96.0,96.5999984741211,96.5999984741211,4700
96.0,97.5,94.5,96.0,96.0,4800
98.0999984741211,100.8000030517578,95.0999984741211,100.1999969482422,100.1999969482422,5700
102.0,102.9000015258789,99.0,99.9000015258789,99.9000015258789,4900
100.1999969482422,114.5999984741211,100.1999969482422,108.0,108.0,24700
110.4000015258789,129.0,109.1999969482422,120.3000030517578,120.3000030517578,76700
113.4000015258789,117.3000030517578,105.9000015258789,108.5999984741211,108.5999984741211,28400
106.8000030517578,121.1999969482422,106.8000030517578,117.5999984741211,117.5999984741211,34200
117.9000015258789,120.0,110.4000015258789,112.1999969482422,112.1999969482422,15500
112.5,116.61000061035156,111.9000015258789,115.1999969482422,115.1999969482422,10100
116.6999969482422,117.0,112.5,114.5999984741211,114.5999984741211,8000
115.1999969482422,120.0,114.5999984741211,118.8000030517578,118.8000030517578,11700
117.5999984741211,119.6999969482422,115.8000030517578,117.9000015258789,117.9000015258789,8800
118.5,124.1999969482422,117.0,119.4000015258789,119.4000015258789,13700
123.0,124.8000030517578,117.3000030517578,121.5,121.5,17100
121.5,123.5999984741211,119.0999984741211,120.3000030517578,120.3000030517578,11400
122.0999984741211,122.6999969482422,105.0,110.0999984741211,110.0999984741211,27100
109.1999969482422,111.9000015258789,107.4000015258789,110.0999984741211,110.0999984741211,10400
108.5999984741211,114.5999984741211,102.62999725341795,107.0999984741211,107.0999984741211,20300
86.4000015258789,97.5,86.4000015258789,92.0999984741211,92.0999984741211,32900
94.8000030517578,96.0,91.5,94.1999969482422,94.1999969482422,8400
119.4000015258789,120.0,106.5,116.0999984741211,116.0999984741211,231200
108.9000015258789,112.5,103.8000030517578,104.6999969482422,104.6999969482422,27100
106.1999969482422,113.6999969482422,104.6999969482422,109.1999969482422,109.1999969482422,14100
110.6999969482422,110.6999969482422,101.6999969482422,102.5999984741211,102.5999984741211,12900
102.5999984741211,104.22000122070312,97.86000061035156,101.6999969482422,101.6999969482422,9400
103.1999969482422,105.5999984741211,99.5999984741211,100.8000030517578,100.8000030517578,10200
100.1999969482422,101.63999938964844,97.8000030517578,99.0,99.0,5500
97.5,99.9000015258789,97.5,98.6999969482422,98.6999969482422,2900
101.6999969482422,103.1999969482422,98.0999984741211,98.6999969482422,98.6999969482422,6400
98.4000015258789,99.3000030517578,97.8000030517578,99.3000030517578,99.3000030517578,3800
98.6999969482422,98.6999969482422,95.0999984741211,97.1999969482422,97.1999969482422,5100
96.3000030517578,98.6999969482422,96.3000030517578,96.9000015258789,96.9000015258789,2100
95.6999969482422,98.4000015258789,94.5,96.0,96.0,4900
97.8000030517578,97.8000030517578,92.4000015258789,93.5999984741211,93.5999984741211,8200
95.0999984741211,97.1999969482422,93.9000015258789,94.5,94.5,5400
94.5,96.3000030517578,93.0,93.5999984741211,93.5999984741211,4400
96.9000015258789,97.5,93.3000030517578,94.8000030517578,94.8000030517578,8100
98.4000015258789,98.4000015258789,93.0,94.8000030517578,94.8000030517578,6600
93.5999984741211,95.4000015258789,92.30999755859376,95.4000015258789,95.4000015258789,4200
93.0,94.8000030517578,91.8000030517578,93.0,93.0,4200
92.4000015258789,94.5,92.4000015258789,94.5,94.5,7600
93.5999984741211,94.5,92.6999969482422,93.0,93.0,2800
93.0,94.5,91.8000030517578,94.5,94.5,4400
92.4000015258789,93.69000244140624,91.8000030517578,92.4000015258789,92.4000015258789,2500
92.4000015258789,93.0,90.3000030517578,91.5,91.5,4900
92.4000015258789,92.4000015258789,88.80000305175781,90.3000030517578,90.3000030517578,5800
91.8000030517578,93.5999984741211,90.0,90.9000015258789,90.9000015258789,4600
90.3000030517578,91.13999938964844,88.5,89.4000015258789,89.4000015258789,3800
90.0,90.9000015258789,89.0999984741211,90.9000015258789,90.9000015258789,3200
89.69999694824219,91.8000030517578,89.0999984741211,91.5,91.5,5400
91.5,91.5,89.4000015258789,90.3000030517578,90.3000030517578,2900
91.5,92.6999969482422,88.19999694824219,89.0999984741211,89.0999984741211,7200
89.0999984741211,90.0,84.30000305175781,85.5,85.5,10500
87.0,89.04000091552734,84.5999984741211,88.80000305175781,88.80000305175781,4500
88.5,91.68000030517578,88.19999694824219,91.5,91.5,4200
86.4000015258789,90.0,81.5999984741211,87.30000305175781,87.30000305175781,3900
85.80000305175781,87.2699966430664,81.5999984741211,82.19999694824219,82.19999694824219,9200
79.80000305175781,81.0,72.0,78.5999984741211,78.5999984741211,18800
75.5999984741211,80.0999984741211,75.0,79.19999694824219,79.19999694824219,5500
77.69999694824219,78.30000305175781,74.4000015258789,74.4000015258789,74.4000015258789,7800
76.19999694824219,76.19999694824219,67.80000305175781,69.30000305175781,69.30000305175781,12700
71.69999694824219,72.1500015258789,66.5999984741211,67.80000305175781,67.80000305175781,10000
70.19999694824219,70.52999877929688,67.19999694824219,68.4000015258789,68.4000015258789,4900
68.69999694824219,69.1500015258789,66.0,66.9000015258789,66.9000015258789,5000
67.5,69.0,66.02999877929688,67.5,67.5,3000
69.30000305175781,73.47000122070312,68.69999694824219,72.9000015258789,72.9000015258789,9100
75.5999984741211,92.0999984741211,75.5999984741211,79.5,79.5,42200
81.5999984741211,81.5999984741211,74.0999984741211,75.30000305175781,75.30000305175781,10200
75.0,75.38999938964844,71.0999984741211,72.30000305175781,72.30000305175781,5700
71.0999984741211,72.23999786376953,69.0,69.30000305175781,69.30000305175781,4000
69.30000305175781,72.30000305175781,68.4000015258789,70.5,70.5,3700
70.5,75.30000305175781,68.69999694824219,69.30000305175781,69.30000305175781,8300
70.19999694824219,70.5,67.19999694824219,69.0,69.0,4100
68.0999984741211,69.0,66.9000015258789,69.0,69.0,2100
69.30000305175781,69.36000061035156,66.0,66.9000015258789,66.9000015258789,5400
67.5,75.9000015258789,66.0,69.9000015258789,69.9000015258789,17800
69.30000305175781,69.30000305175781,67.80000305175781,68.69999694824219,68.69999694824219,2500
70.19999694824219,70.19999694824219,66.5999984741211,68.69999694824219,68.69999694824219,5000
69.5999984741211,69.5999984741211,66.5999984741211,68.0999984741211,68.0999984741211,3300
68.0999984741211,68.61000061035156,65.4000015258789,65.4000015258789,65.4000015258789,8600
66.0,66.66000366210938,56.70000076293945,60.29999923706055,60.29999923706055,10100
57.900001525878906,63.29999923706055,52.20000076293945,61.79999923706055,61.79999923706055,19900
61.5,63.0,60.0,61.79999923706055,61.79999923706055,2700
60.900001525878906,61.79999923706055,58.79999923706055,60.0,60.0,2900
60.0,60.900001525878906,58.79999923706055,59.70000076293945,59.70000076293945,2900
65.4000015258789,65.4000015258789,57.02999877929688,58.79999923706055,58.79999923706055,4000
58.79999923706055,59.459999084472656,57.59999847412109,58.5,58.5,3200
56.400001525878906,58.79999923706055,56.400001525878906,57.900001525878906,57.900001525878906,1000
56.400001525878906,60.0,56.0099983215332,58.20000076293945,58.20000076293945,5100
57.0,60.0,56.70000076293945,57.0,57.0,2500
59.09999847412109,59.25,55.20000076293945,56.70000076293945,56.70000076293945,3200
54.900001525878906,58.20000076293945,54.900001525878906,56.70000076293945,56.70000076293945,2000
57.900001525878906,61.5,57.0,57.59999847412109,57.59999847412109,8600
57.29999923706055,57.900001525878906,55.77000045776367,56.09999847412109,56.09999847412109,5000
57.0,57.630001068115234,55.88999938964844,57.0,57.0,2500
57.0,60.0,56.70000076293945,59.369998931884766,59.369998931884766,4700
60.59999847412109,65.4000015258789,58.79999923706055,60.900001525878906,60.900001525878906,9700
61.79999923706055,62.25,60.59999847412109,61.5,61.5,3100
61.79999923706055,61.79999923706055,57.959999084472656,59.400001525878906,59.400001525878906,1800
59.70000076293945,59.70000076293945,56.70000076293945,58.79999923706055,58.79999923706055,2300
59.09999847412109,60.29999923706055,57.29999923706055,58.20000076293945,58.20000076293945,1500
58.5,59.09999847412109,57.29999923706055,59.09999847412109,59.09999847412109,1000
60.29999923706055,65.69999694824219,59.70000076293945,63.0,63.0,7000
63.0,63.29999923706055,62.09999847412109,62.70000076293945,62.70000076293945,1200
64.5,66.0,62.70000076293945,63.59999847412109,63.59999847412109,3900
65.4000015258789,66.0,63.59999847412109,65.69999694824219,65.69999694824219,3400
67.5,69.5999984741211,66.30000305175781,69.30000305175781,69.30000305175781,4500
69.9000015258789,76.19999694824219,66.9000015258789,66.9000015258789,66.9000015258789,10900
74.4000015258789,74.4000015258789,67.5,69.0,69.0,2000
72.0,72.0,64.5,65.69999694824219,65.69999694824219,6300
68.69999694824219,68.69999694824219,63.29999923706055,66.5999984741211,66.5999984741211,3100
66.66000366210938,66.66000366210938,63.29999923706055,63.29999923706055,63.29999923706055,2100
62.400001525878906,65.7300033569336,62.400001525878906,63.29999923706055,63.29999923706055,1800
66.30000305175781,66.30000305175781,59.70000076293945,61.20000076293945,61.20000076293945,3800
57.29999923706055,61.43999862670898,57.29999923706055,60.0,60.0,1500
62.400001525878906,62.400001525878906,58.20000076293945,59.70000076293945,59.70000076293945,2300
59.70000076293945,60.0,58.20000076293945,58.20000076293945,58.20000076293945,1900
57.900001525878906,60.29999923706055,57.900001525878906,59.400001525878906,59.400001525878906,1700
62.70000076293945,62.70000076293945,58.5,59.400001525878906,59.400001525878906,1300
57.59999847412109,61.5,57.59999847412109,61.5,61.5,1500
57.900001525878906,61.5,57.900001525878906,60.0,60.0,2400
59.70000076293945,61.5,57.900001525878906,59.400001525878906,59.400001525878906,3300
59.130001068115234,60.900001525878906,57.59999847412109,57.59999847412109,57.59999847412109,2400
55.79999923706055,59.400001525878906,55.79999923706055,56.400001525878906,56.400001525878906,4300
58.20000076293945,58.79999923706055,55.20000076293945,55.20000076293945,55.20000076293945,5300
55.5,57.900001525878906,55.5,57.0,57.0,3300
55.20000076293945,61.5,54.900001525878906,57.59999847412109,57.59999847412109,1800
57.59999847412109,59.09999847412109,56.09999847412109,56.09999847412109,56.09999847412109,1500
57.29999923706055,58.20000076293945,55.79999923706055,55.97999954223633,55.97999954223633,3600
56.09999847412109,57.900001525878906,56.09999847412109,56.09999847412109,56.09999847412109,1900
56.09999847412109,56.400001525878906,55.20000076293945,55.79999923706055,55.79999923706055,2300
55.5,56.90999984741211,55.5,55.5,55.5,3600
57.0,57.0,54.29999923706055,54.29999923706055,54.29999923706055,2800
54.0,55.5,52.5,53.43000030517578,53.43000030517578,3700
55.5,55.5,50.70000076293945,51.0,51.0,3800
53.70000076293945,55.5,48.29999923706055,50.70000076293945,50.70000076293945,4900
51.29999923706055,51.59999847412109,49.79999923706055,50.400001525878906,50.400001525878906,1600
50.790000915527344,53.400001525878906,50.790000915527344,51.900001525878906,51.900001525878906,2300
51.900001525878906,52.380001068115234,49.5,50.400001525878906,50.400001525878906,1900
48.29999923706055,51.0,48.0,50.70000076293945,50.70000076293945,7000
51.0,55.79999923706055,50.90999984741211,54.59999847412109,54.59999847412109,2700
56.400001525878906,67.5,55.5,64.80000305175781,64.80000305175781,17700
70.5,72.0,57.0,63.59999847412109,63.59999847412109,16400
51.59999847412109,80.69999694824219,51.0,62.09999847412109,62.09999847412109,46900
61.79999923706055,62.400001525878906,55.79999923706055,55.79999923706055,55.79999923706055,9200
51.29999923706055,62.09999847412109,51.29999923706055,60.0,60.0,7900
60.0,62.54999923706055,55.470001220703125,62.400001525878906,62.400001525878906,5100
62.09999847412109,63.2400016784668,57.59999847412109,58.20000076293945,58.20000076293945,3400
57.900001525878906,60.59999847412109,57.59999847412109,60.0,60.0,3000
60.0,63.0,57.900001525878906,58.650001525878906,58.650001525878906,1400
57.900001525878906,61.5,57.59999847412109,59.70000076293945,59.70000076293945,2800
59.70000076293945,60.29999923706055,55.5,58.20000076293945,58.20000076293945,2800
60.0,60.0,54.29999923706055,54.29999923706055,54.29999923706055,3700
55.5,55.5,53.400001525878906,53.70000076293945,53.70000076293945,2200
55.20000076293945,55.20000076293945,53.400001525878906,54.29999923706055,54.29999923706055,2300
54.59999847412109,55.20000076293945,52.79999923706055,55.20000076293945,55.20000076293945,600
55.5,57.56999969482422,52.79999923706055,57.2400016784668,57.2400016784668,8300
56.70000076293945,56.790000915527344,53.09999847412109,56.09999847412109,56.09999847412109,1800
55.79999923706055,57.33000183105469,53.400001525878906,55.5,55.5,1000
56.09999847412109,56.70000076293945,55.20000076293945,55.5,55.5,1300
54.29999923706055,55.34999847412109,53.70000076293945,53.70000076293945,53.70000076293945,1700
57.0,57.0,53.09999847412109,53.70000076293945,53.70000076293945,1700
54.59999847412109,55.20000076293945,53.09999847412109,53.09999847412109,53.09999847412109,1300
53.09999847412109,53.70000076293945,52.79999923706055,53.09999847412109,53.09999847412109,900
53.66999816894531,53.70000076293945,52.5,52.79999923706055,52.79999923706055,900
52.5,54.59999847412109,51.0,51.29999923706055,51.29999923706055,1900
54.0,54.0,51.29999923706055,51.36000061035156,51.36000061035156,1700
52.470001220703125,55.5,48.29999923706055,54.59999847412109,54.59999847412109,8400
54.59999847412109,54.900001525878906,52.5,54.59999847412109,54.59999847412109,2000
54.59999847412109,56.09999847412109,54.29999923706055,54.900001525878906,54.900001525878906,2400
55.5,55.5,50.09999847412109,50.09999847412109,50.09999847412109,3100
50.09999847412109,55.5,50.09999847412109,52.5,52.5,2000
53.70000076293945,53.70000076293945,50.09999847412109,52.20000076293945,52.20000076293945,1000
51.29999923706055,51.900001525878906,48.900001525878906,49.20000076293945,49.20000076293945,1700
50.15999984741211,50.15999984741211,45.0,45.0,45.0,6500
46.5,48.0,46.5,48.0,48.0,4600
47.09999847412109,48.0,44.09999847412109,44.400001525878906,44.400001525878906,3300
44.400001525878906,47.70000076293945,43.5,46.79999923706055,46.79999923706055,2700
48.0,48.0,43.5,43.5,43.5,4900
41.70000076293945,45.29999923706055,41.70000076293945,43.20000076293945,43.20000076293945,4300
43.20000076293945,46.5,43.20000076293945,46.5,46.5,1600
46.5,46.79999923706055,45.0,45.59999847412109,45.59999847412109,900
45.59999847412109,46.290000915527344,44.400001525878906,45.900001525878906,45.900001525878906,1100
47.130001068115234,51.959999084472656,46.650001525878906,48.900001525878906,48.900001525878906,2600
50.369998931884766,51.0,41.93999862670898,45.060001373291016,45.060001373291016,5200
47.70000076293945,48.0,45.29999923706055,47.400001525878906,47.400001525878906,2000
48.65999984741211,48.900001525878906,45.0,45.900001525878906,45.900001525878906,2200
46.5,48.29999923706055,46.43999862670898,48.0,48.0,600
48.29999923706055,48.29999923706055,46.79999923706055,46.79999923706055,46.79999923706055,400
47.54999923706055,49.79999923706055,47.400001525878906,48.900001525878906,48.900001525878906,2200
49.5,53.09999847412109,49.2599983215332,52.5,52.5,4300
53.09999847412109,53.43000030517578,49.20000076293945,49.20000076293945,49.20000076293945,3200
50.70000076293945,52.5,50.09999847412109,52.20000076293945,52.20000076293945,700
52.20000076293945,52.20000076293945,49.79999923706055,49.79999923706055,49.79999923706055,1400
50.459999084472656,52.20000076293945,48.0,48.0,48.0,2200
48.27000045776367,49.79999923706055,47.90999984741211,48.900001525878906,48.900001525878906,400
50.400001525878906,50.400001525878906,48.900001525878906,50.09999847412109,50.09999847412109,700
50.400001525878906,50.400001525878906,46.5,49.79999923706055,49.79999923706055,1400
50.09999847412109,50.400001525878906,48.900001525878906,50.09999847412109,50.09999847412109,1000
50.09999847412109,51.900001525878906,49.11000061035156,51.0,51.0,1000
51.900001525878906,51.900001525878906,50.400001525878906,50.400001525878906,50.400001525878906,1200
51.0,51.0,49.79999923706055,49.79999923706055,49.79999923706055,1100
51.59999847412109,52.5,50.400001525878906,51.900001525878906,51.900001525878906,1200
50.400001525878906,52.5,50.400001525878906,51.59999847412109,51.59999847412109,1300
51.900001525878906,52.5,50.70000076293945,52.20000076293945,52.20000076293945,900
52.5,54.0,50.93999862670898,51.29999923706055,51.29999923706055,3600
42.900001525878906,42.900001525878906,39.59999847412109,40.5,40.5,20900
42.0,42.900001525878906,39.0,39.900001525878906,39.900001525878906,4700
39.900001525878906,40.20000076293945,37.5,38.09999847412109,38.09999847412109,9000
39.59999847412109,39.59999847412109,38.70000076293945,38.70000076293945,38.70000076293945,2200
39.0,39.0,38.09999847412109,38.09999847412109,38.09999847412109,2000
38.130001068115234,39.0,38.09999847412109,38.400001525878906,38.400001525878906,3500
40.5,40.5,39.0,40.20000076293945,40.20000076293945,3100
39.59999847412109,41.09999847412109,37.79999923706055,37.79999923706055,37.79999923706055,2700
49.79999923706055,49.79999923706055,37.5,38.09999847412109,38.09999847412109,1700
38.70000076293945,40.20000076293945,37.79999923706055,37.79999923706055,37.79999923706055,3800
37.79999923706055,38.70000076293945,37.5,37.77000045776367,37.77000045776367,4700
37.5,38.400001525878906,35.099998474121094,35.099998474121094,35.099998474121094,13100
35.189998626708984,37.20000076293945,34.5,37.20000076293945,37.20000076293945,3700
36.900001525878906,37.20000076293945,35.81999969482422,36.29999923706055,36.29999923706055,1500
37.79999923706055,37.79999923706055,36.41999816894531,37.5,37.5,2400
37.79999923706055,39.0,36.900001525878906,38.09999847412109,38.09999847412109,2100
38.400001525878906,39.0,37.59000015258789,38.400001525878906,38.400001525878906,1400
38.70000076293945,39.0,36.29999923706055,36.59999847412109,36.59999847412109,1800
38.400001525878906,38.52000045776367,34.97999954223633,36.0,36.0,5000
42.0,45.0,37.79999923706055,39.0,39.0,10400
42.0,42.0,37.5,38.400001525878906,38.400001525878906,2600
38.09999847412109,39.869998931884766,36.0,38.400001525878906,38.400001525878906,4700
39.0,39.0,37.5,38.400001525878906,38.400001525878906,3400
38.09999847412109,39.900001525878906,37.77000045776367,38.09999847412109,38.09999847412109,2900
37.79999923706055,39.900001525878906,37.5,38.09999847412109,38.09999847412109,2400
39.45000076293945,40.20000076293945,37.5,37.79999923706055,37.79999923706055,6900
39.0,39.0,37.20000076293945,38.09999847412109,38.09999847412109,5200
37.79999923706055,38.70000076293945,37.20000076293945,37.5,37.5,2200
38.09999847412109,39.29999923706055,37.22999954223633,37.79999923706055,37.79999923706055,2200
37.20000076293945,38.52000045776367,37.20000076293945,38.09999847412109,38.09999847412109,2200
38.400001525878906,38.70000076293945,35.220001220703125,37.5,37.5,4000
37.5,37.5,35.70000076293945,35.70000076293945,35.70000076293945,2300
37.20000076293945,37.20000076293945,35.099998474121094,35.400001525878906,35.400001525878906,3100
36.29999923706055,36.900001525878906,35.400001525878906,36.0,36.0,1500
36.0,36.900001525878906,35.400001525878906,36.0,36.0,1400
36.0,36.900001525878906,35.099998474121094,35.400001525878906,35.400001525878906,4000
34.79999923706055,36.0,34.5,34.79999923706055,34.79999923706055,5000
34.5,36.119998931884766,34.5,35.099998474121094,35.099998474121094,3500
34.79999923706055,36.0,34.79999923706055,35.400001525878906,35.400001525878906,1900
35.70000076293945,36.0,35.099998474121094,35.70000076293945,35.70000076293945,700
35.400001525878906,39.29999923706055,35.099998474121094,36.47999954223633,36.47999954223633,9800
36.0,37.619998931884766,35.099998474121094,36.0,36.0,1600
36.33000183105469,37.20000076293945,35.400001525878906,35.70000076293945,35.70000076293945,1300
36.900001525878906,36.900001525878906,35.400001525878906,35.90999984741211,35.90999984741211,2100
36.0,36.29999923706055,35.400001525878906,35.54999923706055,35.54999923706055,700
35.099998474121094,36.0,35.099998474121094,35.099998474121094,35.099998474121094,1900
34.5,37.5,34.5,35.70000076293945,35.70000076293945,7800
36.0,36.900001525878906,35.400001525878906,35.400001525878906,35.400001525878906,3900
36.29999923706055,37.20000076293945,35.70000076293945,36.29999923706055,36.29999923706055,1900
36.0,36.900001525878906,36.0,36.59999847412109,36.59999847412109,700
36.540000915527344,37.20000076293945,36.0,36.59999847412109,36.59999847412109,1400
36.900001525878906,36.900001525878906,36.2400016784668,36.29999923706055,36.29999923706055,900
36.29999923706055,36.900001525878906,35.70000076293945,35.790000915527344,35.790000915527344,2200
35.400001525878906,36.900001525878906,35.400001525878906,36.29999923706055,36.29999923706055,1500
36.0,36.900001525878906,35.70000076293945,35.70000076293945,35.70000076293945,1600
35.70000076293945,36.59999847412109,35.099998474121094,35.400001525878906,35.400001525878906,2000
37.20000076293945,37.20000076293945,35.400001525878906,36.59999847412109,36.59999847412109,10900
37.5,38.70000076293945,36.0,38.70000076293945,38.70000076293945,4100
38.09999847412109,39.0,36.59999847412109,37.5,37.5,3000
36.59999847412109,38.81999969482422,36.59999847412109,37.5,37.5,1700
37.20000076293945,37.79999923706055,36.29999923706055,36.59999847412109,36.59999847412109,2200
36.900001525878906,37.31999969482422,35.70000076293945,37.13999938964844,37.13999938964844,3400
37.5,37.79999923706055,35.70000076293945,37.20000076293945,37.20000076293945,4200
36.0,37.52999877929688,36.0,36.29999923706055,36.29999923706055,3600
36.0,36.900001525878906,33.0,36.29999923706055,36.29999923706055,6100
35.099998474121094,35.400001525878906,33.29999923706055,33.29999923706055,33.29999923706055,5400
33.29999923706055,33.599998474121094,29.700000762939453,31.5,31.5,11400
32.099998474121094,32.130001068115234,30.299999237060547,30.899999618530277,30.899999618530277,2500
31.799999237060547,31.799999237060547,27.0,27.899999618530277,27.899999618530277,10100
27.899999618530277,29.57999992370605,27.0,29.100000381469727,29.100000381469727,2700
29.100000381469727,29.700000762939453,27.600000381469727,29.670000076293945,29.670000076293945,2100
30.0,30.0,27.450000762939453,28.350000381469727,28.350000381469727,1500
28.5,28.799999237060547,26.700000762939453,27.299999237060547,27.299999237060547,2100
26.700000762939453,27.299999237060547,24.600000381469727,27.149999618530277,27.149999618530277,3600
26.489999771118164,27.0,26.06999969482422,26.700000762939453,26.700000762939453,900
26.700000762939453,27.149999618530277,26.100000381469727,26.700000762939453,26.700000762939453,1400
27.959999084472656,27.959999084472656,25.799999237060547,27.32999992370605,27.32999992370605,1100
27.32999992370605,28.5,26.700000762939453,27.899999618530277,27.899999618530277,2500
27.0,27.93000030517578,25.920000076293945,26.459999084472656,26.459999084472656,1700
27.600000381469727,27.600000381469727,25.920000076293945,26.729999542236328,26.729999542236328,400
26.700000762939453,28.5,26.700000762939453,27.0,27.0,1600
26.520000457763672,26.90999984741211,25.5,25.559999465942383,25.559999465942383,1100
25.5,26.700000762939453,24.899999618530277,25.13999938964844,25.13999938964844,1000
26.100000381469727,26.100000381469727,24.0,25.799999237060547,25.799999237060547,3800
22.799999237060547,24.270000457763672,22.649999618530277,23.309999465942383,23.309999465942383,2500
24.0,24.0,22.799999237060547,22.799999237060547,22.799999237060547,2600
23.399999618530277,23.489999771118164,22.200000762939453,22.200000762939453,22.200000762939453,1600
22.200000762939453,23.43000030517578,22.200000762939453,23.100000381469727,23.100000381469727,900
24.0,27.299999237060547,23.700000762939453,24.299999237060547,24.299999237060547,4400
26.399999618530277,26.399999618530277,24.479999542236328,25.559999465942383,25.559999465942383,1400
27.0,27.0,24.299999237060547,24.299999237060547,24.299999237060547,1300
24.299999237060547,26.399999618530277,24.299999237060547,25.799999237060547,25.799999237060547,3300
26.399999618530277,27.0,24.600000381469727,24.600000381469727,24.600000381469727,1100
25.200000762939453,25.5,23.549999237060547,23.549999237060547,23.549999237060547,700
24.899999618530277,25.5,24.600000381469727,24.600000381469727,24.600000381469727,300
24.71999931335449,25.950000762939453,22.5,22.799999237060547,22.799999237060547,1900
22.5,23.700000762939453,21.899999618530277,22.200000762939453,22.200000762939453,1800
21.899999618530277,23.399999618530277,21.0,21.0,21.0,2800
21.299999237060547,22.31999969482422,21.299999237060547,21.600000381469727,21.600000381469727,1500
22.3799991607666,22.5,21.479999542236328,21.989999771118164,21.989999771118164,300
21.1200008392334,21.899999618530277,19.799999237060547,21.299999237060547,21.299999237060547,400
21.299999237060547,22.5,20.399999618530277,22.5,22.5,400
22.5,22.5,21.0,21.149999618530277,21.149999618530277,300
22.200000762939453,22.200000762939453,21.450000762939453,21.450000762939453,21.450000762939453,200
22.200000762939453,22.5,21.0,22.5,22.5,600
22.46999931335449,24.1200008392334,22.46999931335449,22.950000762939453,22.950000762939453,700
23.06999969482422,23.399999618530277,22.26000022888184,22.40999984741211,22.40999984741211,900
21.600000381469727,23.100000381469727,21.600000381469727,22.799999237060547,22.799999237060547,500
23.399999618530277,24.899999618530277,22.290000915527344,24.299999237060547,24.299999237060547,2800
24.899999618530277,25.200000762939453,22.200000762939453,22.200000762939453,22.200000762939453,4200
23.100000381469727,23.399999618530277,22.200000762939453,23.100000381469727,23.100000381469727,300
22.530000686645508,23.100000381469727,22.200000762939453,23.100000381469727,23.100000381469727,300
23.100000381469727,23.399999618530277,21.030000686645508,21.540000915527344,21.540000915527344,1600
21.71999931335449,22.86000061035156,21.600000381469727,22.5,22.5,2100
22.5,22.799999237060547,22.5,22.59000015258789,22.59000015258789,400
22.799999237060547,22.799999237060547,21.0,21.899999618530277,21.899999618530277,1300
22.200000762939453,22.799999237060547,22.170000076293945,22.290000915527344,22.290000915527344,700
22.200000762939453,22.799999237060547,21.84000015258789,21.84000015258789,21.84000015258789,400
21.899999618530277,23.700000762939453,21.899999618530277,23.700000762939453,23.700000762939453,1900
23.700000762939453,27.0,23.700000762939453,25.200000762939453,25.200000762939453,9200
25.350000381469727,26.399999618530277,25.020000457763672,25.020000457763672,25.020000457763672,1200
26.100000381469727,29.399999618530277,24.899999618530277,25.13999938964844,25.13999938964844,2200
24.600025177001957,25.500024795532227,22.89002227783203,24.600025177001957,24.600025177001957,79200
25.500024795532227,25.500024795532227,23.520023345947266,24.300024032592773,24.300024032592773,7800
24.300024032592773,24.300024032592773,23.040023803710938,23.460023880004883,23.460023880004883,59100
23.040023803710938,25.500024795532227,23.040023803710938,24.450023651123047,24.450023651123047,63500
24.000024795532227,24.000024795532227,22.80002212524414,23.2800235748291,23.2800235748291,53200
24.600025177001957,24.72002410888672,22.500022888183597,22.770023345947266,22.770023345947266,24800
22.500022888183597,24.000024795532227,22.500022888183597,22.650022506713867,22.650022506713867,15800
22.80002212524414,22.80002212524414,21.30002212524414,21.360021591186523,21.360021591186523,29300
22.500022888183597,22.500022888183597,20.70001983642578,21.30002212524414,21.30002212524414,67100
21.420021057128903,22.380022048950195,18.360017776489254,20.10001945495605,20.10001945495605,38300
20.82002067565918,21.600021362304688,20.70001983642578,21.00002098083496,21.00002098083496,26500
20.70001983642578,22.20002174377441,20.70001983642578,21.30002212524414,21.30002212524414,17100
30.60003089904785,35.4000358581543,23.43002319335937,24.9000244140625,24.9000244140625,12966400
23.700023651123047,25.500024795532227,23.400022506713867,25.20002555847168,25.20002555847168,509900
23.520023345947266,25.440025329589844,23.400022506713867,24.42002487182617,24.42002487182617,195000
24.600025177001957,25.11002540588379,21.600021362304688,22.500022888183597,22.500022888183597,164500
23.10002326965332,23.10002326965332,22.500022888183597,22.71002197265625,22.71002197265625,63300
22.500022888183597,24.9000244140625,22.500022888183597,22.80002212524414,22.80002212524414,149900
22.500022888183597,23.700023651123047,22.500022888183597,23.2800235748291,23.2800235748291,48400
25.20002555847168,25.20002555847168,23.550024032592773,23.550024032592773,23.550024032592773,38800
24.36002349853516,24.36002349853516,23.400022506713867,23.460023880004883,23.460023880004883,39700
23.910024642944336,24.000024795532227,22.83002281188965,22.950023651123047,22.950023651123047,30500
23.400022506713867,23.400022506713867,22.32002258300781,22.440021514892575,22.440021514892575,60900
22.440021514892575,22.950023651123047,22.440021514892575,22.590023040771484,22.590023040771484,17700
22.500022888183597,23.130023956298828,20.400020599365234,20.91002082824707,20.91002082824707,147300
21.00002098083496,22.500022888183597,21.00002098083496,22.500022888183597,22.500022888183597,50000
22.500022888183597,24.000024795532227,22.20002174377441,23.250022888183597,23.250022888183597,47000
24.000024795532227,25.800025939941406,22.80002212524414,22.89002227783203,22.89002227783203,280000
24.9000244140625,24.9000244140625,24.000024795532227,24.000024795532227,24.000024795532227,44000
24.0300235748291,25.230024337768555,22.80002212524414,23.400022506713867,23.400022506713867,45900
22.560022354125977,23.97002410888672,22.560022354125977,22.80002212524414,22.80002212524414,69800
22.500022888183597,23.700023651123047,22.500022888183597,23.43002319335937,23.43002319335937,16500
22.53002166748047,23.43002319335937,22.47002220153809,23.43002319335937,23.43002319335937,33100
23.400022506713867,23.67002296447754,21.900022506713867,23.67002296447754,23.67002296447754,45300
23.67002296447754,24.600025177001957,22.500022888183597,22.650022506713867,22.650022506713867,43500
22.80002212524414,23.400022506713867,22.500022888183597,23.160022735595703,23.160022735595703,69300
23.160022735595703,23.400022506713867,21.600021362304688,21.78002166748047,21.78002166748047,44600
21.600021362304688,23.10002326965332,21.600021362304688,22.08002281188965,22.08002281188965,57800
21.900022506713867,22.80002212524414,21.75002098083496,21.930021286010746,21.930021286010746,10000
21.900022506713867,21.900022506713867,18.300018310546875,18.45001792907715,18.45001792907715,204700
18.9000186920166,20.10001945495605,17.40001678466797,18.18001747131348,18.18001747131348,56100
18.300018310546875,18.300018310546875,18.000017166137695,18.000017166137695,18.000017166137695,98200
18.030000686645508,18.299999237060547,16.5,16.799999237060547,16.799999237060547,3100
17.34000015258789,18.600000381469727,17.34000015258789,18.299999237060547,18.299999237060547,2900
18.899999618530277,18.899999618530277,17.700000762939453,17.850000381469727,17.850000381469727,1300
18.0,18.38999938964844,17.639999389648438,17.700000762939453,17.700000762939453,600
17.399999618530273,17.700000762939453,16.799999237060547,17.100000381469727,17.100000381469727,700
17.670000076293945,19.5,17.549999237060547,18.0,18.0,500
18.600000381469727,19.5,18.32999992370605,18.32999992370605,18.32999992370605,600
18.899999618530277,19.200000762939453,18.899999618530277,19.200000762939453,19.200000762939453,300
19.049999237060547,19.200000762939453,17.760000228881836,18.299999237060547,18.299999237060547,1800
19.200000762939453,19.200000762939453,18.299999237060547,18.899999618530277,18.899999618530277,400
19.200000762939453,19.200000762939453,18.0,18.299999237060547,18.299999237060547,300
18.0,20.940000534057617,18.0,20.06999969482422,20.06999969482422,8500
18.600000381469727,20.06999969482422,17.700000762939453,18.0,18.0,1800
18.0,20.43000030517578,17.700000762939453,18.600000381469727,18.600000381469727,2900
18.600000381469727,18.899999618530277,18.299999237060547,18.780000686645508,18.780000686645508,400
18.899999618530277,19.200000762939453,18.51000022888184,18.899999618530277,18.899999618530277,500
18.690000534057617,19.200000762939453,18.0,18.299999237060547,18.299999237060547,1800
18.899999618530277,19.5,17.700000762939453,18.32999992370605,18.32999992370605,4100
18.36000061035156,18.600000381469727,16.6200008392334,17.8799991607666,17.8799991607666,1700
17.700000762939453,19.200000762939453,17.700000762939453,18.149999618530277,18.149999618530277,1000
18.149999618530277,18.899999618530277,18.149999618530277,18.32999992370605,18.32999992370605,800
19.13999938964844,19.13999938964844,18.299999237060547,18.899999618530277,18.899999618530277,900
19.13999938964844,19.5,19.13999938964844,19.440000534057617,19.440000534057617,1600
19.200000762939453,19.350000381469727,18.600000381469727,18.899999618530277,18.899999618530277,600
18.899999618530277,19.5,18.8700008392334,19.5,19.5,1100
19.5,19.5,19.11000061035156,19.440000534057617,19.440000534057617,2000
19.440000534057617,20.21999931335449,19.200000762939453,20.190000534057617,20.190000534057617,2000
20.399999618530277,21.299999237060547,20.399999618530277,20.399999618530277,20.399999618530277,1800
20.399999618530277,21.299999237060547,18.299999237060547,20.61000061035156,20.61000061035156,2700
16.6200008392334,17.100000381469727,15.449999809265137,16.110000610351562,16.110000610351562,7700
15.600000381469728,16.200000762939453,13.020000457763672,16.200000762939453,16.200000762939453,4900
16.5,16.5,14.729999542236328,15.270000457763672,15.270000457763672,1900
15.600000381469728,16.200000762939453,15.270000457763672,15.899999618530272,15.899999618530272,400
15.869999885559082,16.200000762939453,15.600000381469728,15.84000015258789,15.84000015258789,1400
15.600000381469728,16.200000762939453,15.0,15.420000076293944,15.420000076293944,900
15.0,15.899999618530272,15.0,15.300000190734863,15.300000190734863,800
15.0,16.200000762939453,15.0,15.600000381469728,15.600000381469728,900
15.899999618530272,16.5,15.600000381469728,15.600000381469728,15.600000381469728,1500
15.600000381469728,16.200000762939453,15.0,15.300000190734863,15.300000190734863,3300
15.0,15.600000381469728,14.369999885559082,14.670000076293944,14.670000076293944,2700
15.390000343322754,15.899999618530272,15.300000190734863,15.600000381469728,15.600000381469728,600
15.8100004196167,15.8100004196167,14.609999656677246,14.970000267028809,14.970000267028809,1400
15.0,15.300000190734863,14.699999809265137,14.699999809265137,14.699999809265137,1900
15.0,15.0,13.5,14.220000267028809,14.220000267028809,4000
13.800000190734863,15.0,13.800000190734863,14.81999969482422,14.81999969482422,2500
14.100000381469728,15.0,14.100000381469728,14.729999542236328,14.729999542236328,1000
14.699999809265137,14.699999809265137,13.800000190734863,13.800000190734863,13.800000190734863,1700
13.800000190734863,14.699999809265137,13.800000190734863,14.489999771118164,14.489999771118164,2400
14.850000381469728,14.850000381469728,13.949999809265137,14.399999618530272,14.399999618530272,1900
14.100000381469728,14.100000381469728,13.800000190734863,13.800000190734863,13.800000190734863,2500
13.890000343322754,14.34000015258789,13.800000190734863,14.100000381469728,14.100000381469728,900
14.850000381469728,15.6899995803833,13.920000076293944,15.6899995803833,15.6899995803833,8200
12.0,15.0,11.399999618530272,12.0,12.0,14500
11.699999809265137,12.0,9.300000190734863,9.84000015258789,9.84000015258789,21700
9.0,9.600000381469728,9.0,9.539999961853027,9.539999961853027,9200
9.84000015258789,9.84000015258789,9.0,9.329999923706056,9.329999923706056,7700
9.0,10.5,8.489999771118164,10.140000343322754,10.140000343322754,20600
8.90999984741211,9.600000381469728,7.800000190734863,9.0,9.0,14800
8.399999618530273,9.239999771118164,8.399999618530273,9.0,9.0,21500
8.699999809265137,10.5,8.550000190734863,9.09000015258789,9.09000015258789,13700
10.5,10.5,8.399999618530273,9.119999885559082,9.119999885559082,6200
8.100000381469727,9.600000381469728,8.100000381469727,9.029999732971191,9.029999732971191,4400
9.0600004196167,9.56999969482422,8.430000305175781,8.430000305175781,8.430000305175781,12200
9.000008583068848,9.300009727478027,8.100008010864258,8.880008697509766,8.880008697509766,822500
8.700008392333984,10.50001049041748,8.700008392333984,9.69001007080078,9.69001007080078,1657100
11.100010871887209,11.100010871887209,9.390008926391602,10.35000991821289,10.35000991821289,765000
9.900010108947754,10.800010681152344,9.300009727478027,10.800010681152344,10.800010681152344,914500
11.100010871887209,12.720012664794922,9.630009651184082,10.110010147094728,10.110010147094728,1327000
10.200010299682615,10.950011253356934,9.300009727478027,9.900010108947754,9.900010108947754,413500
10.199999809265137,10.199999809265137,9.390000343322754,9.539999961853027,9.539999961853027,7500
9.449999809265137,9.75,9.0,9.420000076293944,9.420000076293944,6000
9.149999618530272,9.75,9.0,9.18000030517578,9.18000030517578,4100
9.240009307861328,9.60000991821289,9.150009155273438,9.4500093460083,9.4500093460083,124300
9.300000190734863,10.079999923706056,9.210000038146973,9.6899995803833,9.6899995803833,7300
10.170010566711426,10.170010566711426,9.030009269714355,9.210009574890137,9.210009574890137,265500
9.210000038146973,9.869999885559082,9.18000030517578,9.479999542236328,9.479999542236328,3400
9.479999542236328,9.899999618530272,9.479999542236328,9.899999618530272,9.899999618530272,4300
9.899999618530272,9.899999618530272,9.600000381469728,9.720000267028809,9.720000267028809,2800
9.600000381469728,9.600000381469728,9.300000190734863,9.449999809265137,9.449999809265137,4100
9.720000267028809,9.720000267028809,9.029999732971191,9.600000381469728,9.600000381469728,2600
9.300009727478027,9.570009231567385,9.000008583068848,9.210009574890137,9.210009574890137,197100
9.0600004196167,9.210000038146973,8.100000381469727,8.699999809265137,8.699999809265137,18500
7.510000228881836,7.849999904632568,6.360000133514404,6.454999923706055,6.454999923706055,30400
6.25,6.300000190734863,5.550000190734863,6.050000190734863,6.050000190734863,61200
7.400000095367432,35.0,7.185999870300293,12.989999771118164,12.989999771118164,4459600
30.0,40.0,20.280000686645508,24.5,24.5,4087800
36.0,36.0,22.049999237060547,24.0,24.0,1768200
19.26000022888184,22.399999618530277,15.270000457763672,15.68000030517578,15.68000030517578,753700
12.68000030517578,15.229999542236328,11.3100004196167,11.649999618530272,11.649999618530272,884600
6.300000190734863,6.579999923706055,6.199999809265137,6.329999923706055,6.329999923706055,3526600
6.019999980926514,6.400000095367432,6.0,6.0,6.0,859800
5.900000095367432,6.309999942779541,5.679999828338623,6.070000171661377,6.070000171661377,510700
6.019999980926514,6.130000114440918,5.650000095367432,5.75,5.75,415300
5.789999961853027,5.869999885559082,5.28000020980835,5.460000038146973,5.460000038146973,325800
6.650000095367432,8.890000343322754,6.5,7.829999923706055,7.829999923706055,15523900
7.46999979019165,7.989999771118164,6.75,7.119999885559082,7.119999885559082,1636200
6.769999980926514,7.260000228881836,6.760000228881836,6.869999885559082,6.869999885559082,420400
6.800000190734863,6.900000095367432,5.872000217437744,6.349999904632568,6.349999904632568,530200
6.409999847412109,6.5,5.706999778747559,5.900000095367432,5.900000095367432,402400
5.730000019073486,6.050000190734863,5.460000038146973,5.570000171661377,5.570000171661377,300000
5.269999980926514,5.375,4.809999942779541,5.0,5.0,440200
5.099999904632568,5.099999904632568,4.559999942779541,4.639999866485596,4.639999866485596,249600
4.710000038146973,5.190000057220459,4.400000095367432,4.880000114440918,4.880000114440918,262100
4.699999809265137,4.96999979019165,4.46999979019165,4.579999923706055,4.579999923706055,183000
4.699999809265137,5.389999866485596,4.5,4.989999771118164,4.989999771118164,529400
4.869999885559082,5.570000171661377,4.78000020980835,5.239999771118164,5.239999771118164,435700
5.099999904632568,5.309999942779541,4.75,5.039999961853027,5.039999961853027,247800
4.550000190734863,4.714000225067139,4.5,4.599999904632568,4.599999904632568,105300
4.71999979019165,4.869999885559082,4.039999961853027,4.21999979019165,4.21999979019165,158900
4.260000228881836,4.75,4.051000118255615,4.679999828338623,4.679999828338623,196900
3.819999933242798,4.400000095367432,3.799999952316284,4.289999961853027,4.289999961853027,166700
4.019999980926514,4.289999961853027,3.5,3.7200000286102295,3.7200000286102295,259800
3.509999990463257,3.539999961853028,3.200000047683716,3.2100000381469727,3.2100000381469727,148600
3.1600000858306885,3.3580000400543213,3.109999895095825,3.2699999809265137,3.2699999809265137,135400
3.0899999141693115,3.390000104904175,2.819999933242798,3.0,3.0,168500
3.0,3.440000057220459,2.970000028610229,3.440000057220459,3.440000057220459,83800
3.3499999046325684,3.795000076293945,3.3499999046325684,3.5999999046325684,3.5999999046325684,73300
3.5299999713897705,3.619999885559082,3.200000047683716,3.470000028610229,3.470000028610229,57600
3.7300000190734863,3.9800000190734863,3.48799991607666,3.559999942779541,3.559999942779541,39000
3.4100000858306885,3.900000095367432,3.4100000858306885,3.7160000801086426,3.7160000801086426,73900
3.650000095367432,3.900000095367432,3.638999938964844,3.700000047683716,3.700000047683716,63100
3.569999933242798,4.190000057220459,3.569999933242798,3.880000114440918,3.880000114440918,95200
3.799999952316284,3.9070000648498535,3.5,3.680000066757202,3.680000066757202,46600
3.809999942779541,3.890000104904175,3.509999990463257,3.569999933242798,3.569999933242798,28300
3.509999990463257,3.609999895095825,3.3499999046325684,3.3499999046325684,3.3499999046325684,49200
