0.0,1.75,1.6796875,1.6875,0.1283281445503235,164800
0.0,1.6875,1.6328125,1.65625,0.1259516924619674,188800
0.0,1.6875,1.6640625,1.6796875,0.1277340948581695,84800
0.0,1.6875,1.6484375,1.6875,0.1283281445503235,328000
0.0,1.6796875,1.6640625,1.6640625,0.1265458315610885,249600
0.0,1.6796875,1.640625,1.6796875,0.1277340948581695,142400
0.0,1.6875,1.6640625,1.6640625,0.1265458315610885,249600
0.0,1.6875,1.6484375,1.65625,0.1259516924619674,228800
0.0,1.65625,1.640625,1.6484375,0.1253575980663299,268800
0.0,1.671875,1.6484375,1.65625,0.1259516924619674,132800
0.0,1.796875,1.671875,1.796875,0.1366457045078277,363200
0.0,1.8046875,1.75,1.765625,0.1342692822217941,276800
0.0,1.765625,1.7109375,1.7109375,0.1301104873418808,86400
0.0,1.7265625,1.6953125,1.71875,0.1307045817375183,156800
0.0,1.71875,1.6875,1.6953125,0.1289222687482834,195200
0.0,1.71875,1.6875,1.7109375,0.1301104873418808,414400
0.0,1.7109375,1.6796875,1.6875,0.1283281445503235,432000
0.0,1.703125,1.6796875,1.6875,0.1283281445503235,544000
0.0,1.734375,1.6953125,1.734375,0.1318927556276321,372800
0.0,1.75,1.7265625,1.734375,0.1318927556276321,107200
0.0,1.75,1.7265625,1.7265625,0.1312987059354782,110400
0.0,1.75,1.734375,1.734375,0.1318927556276321,316800
0.0,1.75,1.734375,1.734375,0.1318927556276321,108800
0.0,1.75,1.734375,1.7421875,0.132486954331398,96000
0.0,1.7421875,1.734375,1.734375,0.1318927556276321,128000
0.0,1.765625,1.7265625,1.765625,0.1342692822217941,99200
0.0,1.796875,1.765625,1.765625,0.1342692822217941,123200
0.0,1.8125,1.78125,1.7890625,0.1360516399145126,152000
0.0,1.8125,1.7734375,1.8046875,0.1372397989034652,67200
0.0,1.8046875,1.765625,1.78125,0.1354574710130691,361600
0.0,1.8359375,1.7890625,1.8125,0.1378339827060699,164800
0.0,1.84375,1.796875,1.8359375,0.1396162658929824,152000
0.0,1.8671875,1.8203125,1.859375,0.1413985788822174,312000
0.0,1.953125,1.875,1.9453125,0.1479338407516479,476800
0.0,1.9296875,1.90625,1.9296875,0.1467455923557281,828800
0.0,1.90625,1.8828125,1.8828125,0.1431809067726135,216000
0.0,1.90625,1.8671875,1.890625,0.1437750458717346,209600
0.0,1.9140625,1.8984375,1.8984375,0.1443691849708557,158400
0.0,1.8984375,1.8671875,1.8671875,0.1419926881790161,129600
0.0,1.875,1.8671875,1.8671875,0.1419926881790161,190400
0.0,1.875,1.859375,1.875,0.1425867676734924,70400
0.0,1.875,1.859375,1.875,0.1425867676734924,129600
0.0,1.875,1.8125,1.859375,0.1413985788822174,240000
0.0,1.84375,1.765625,1.765625,0.1342692822217941,120000
0.0,1.7890625,1.765625,1.7890625,0.1360516399145126,148800
0.0,1.8359375,1.7890625,1.8359375,0.1396162658929824,158400
0.0,1.8671875,1.8203125,1.8359375,0.1396162658929824,532800
0.0,1.828125,1.796875,1.828125,0.1390221416950225,571200
0.0,1.828125,1.796875,1.828125,0.1390221416950225,224000
0.0,1.8671875,1.8125,1.828125,0.1390221416950225,316800
0.0,1.8671875,1.8359375,1.8671875,0.1419926881790161,542400
0.0,1.875,1.8515625,1.8515625,0.1408044397830963,187200
0.0,1.890625,1.84375,1.890625,0.1437750458717346,227200
0.0,1.90625,1.875,1.890625,0.1437750458717346,192000
0.0,1.953125,1.90625,1.921875,0.1461514830589294,320000
0.0,1.953125,1.921875,1.9296875,0.1467455923557281,123200
0.0,2.0,1.9375,1.96875,0.149716168642044,467200
0.0,1.96875,1.9375,1.9375,0.1473398059606552,120000
0.0,1.953125,1.9296875,1.9375,0.1473398059606552,83200
0.0,1.9921875,1.953125,1.9921875,0.151498481631279,203200
0.0,1.9921875,1.9765625,1.9921875,0.151498481631279,70400
0.0,1.984375,1.9609375,1.96875,0.149716168642044,128000
0.0,1.984375,1.953125,1.984375,0.1509043872356414,176000
0.0,1.984375,1.953125,1.9765625,0.1503103077411651,251200
0.0,1.9765625,1.953125,1.953125,0.1485278457403183,155200
0.0,1.9609375,1.9453125,1.9609375,0.1491220891475677,147200
0.0,1.9609375,1.9375,1.9375,0.1473398059606552,187200
0.0,1.9609375,1.9375,1.953125,0.1485278457403183,300800
0.0,1.953125,1.9375,1.9375,0.1473398059606552,128000
0.0,1.953125,1.9375,1.9375,0.1473398059606552,452800
0.0,1.9609375,1.9375,1.9609375,0.1491220891475677,142400
0.0,1.953125,1.9296875,1.9375,0.1473398059606552,152000
0.0,1.9375,1.9296875,1.9375,0.1473398059606552,737600
0.0,1.9375,1.84375,1.875,0.1425867676734924,265600
0.0,1.890625,1.84375,1.890625,0.1437750458717346,1777600
0.0,1.890625,1.875,1.8828125,0.1431809067726135,489600
0.0,1.921875,1.890625,1.8984375,0.1443691849708557,136000
0.0,1.9375,1.9140625,1.921875,0.1461514830589294,193600
0.0,1.953125,1.9375,1.953125,0.1485278457403183,206400
0.0,1.9921875,1.9375,1.9921875,0.151498481631279,321600
0.0,2.0234375,1.96875,2.0,0.1520925760269165,627200
0.0,2.015625,1.984375,2.015625,0.153280958533287,158400
0.0,2.0546875,2.0,2.0546875,0.1562514007091522,190400
0.0,2.078125,2.046875,2.0703125,0.1574396193027496,291200
0.0,2.0703125,2.046875,2.0703125,0.1574396193027496,859200
0.0,2.0859375,2.0625,2.078125,0.1580337136983871,480000
0.0,2.1484375,2.0703125,2.1328125,0.1621925085783004,652800
0.0,2.15625,2.1328125,2.15625,0.1639748513698578,268800
0.0,2.171875,2.1484375,2.1484375,0.1633806973695755,350400
0.0,2.15625,2.125,2.125,0.1615983545780182,280000
0.0,2.140625,2.125,2.140625,0.162786602973938,332800
0.0,2.140625,2.125,2.1328125,0.1621925085783004,121600
0.0,2.140625,2.125,2.140625,0.162786602973938,355200
0.0,2.171875,2.1328125,2.171875,0.1651631742715835,188800
0.0,2.1953125,2.1875,2.1953125,0.1669454127550125,1552000
0.0,2.2109375,2.1875,2.2109375,0.1681336313486099,1233600
0.0,2.234375,2.21875,2.2265625,0.1693218499422073,305600
0.0,2.2734375,2.21875,2.2734375,0.172886461019516,1603200
0.0,2.265625,2.2265625,2.25,0.171104222536087,1168000
0.0,2.2890625,2.2421875,2.2890625,0.1740747094154358,254400
0.0,2.2734375,2.25,2.2578125,0.1716983020305633,276800
0.0,2.28125,2.2578125,2.2734375,0.172886461019516,598400
0.0,2.2578125,2.25,2.2578125,0.1716983020305633,259200
0.0,2.3125,2.25,2.2734375,0.172886461019516,1137600
0.0,2.296875,2.2578125,2.265625,0.1722924262285232,140800
0.0,2.265625,2.25,2.265625,0.1722924262285232,126400
0.0,2.2890625,2.2578125,2.2578125,0.1716983020305633,195200
0.0,2.25,2.203125,2.203125,0.1675394773483276,299200
0.0,2.203125,2.171875,2.1796875,0.1657571792602539,622400
0.0,2.1953125,2.1484375,2.1953125,0.1669454127550125,259200
0.0,2.28125,2.25,2.265625,0.1722924262285232,745600
0.0,2.28125,2.2578125,2.265625,0.1722924262285232,195200
0.0,2.265625,2.25,2.25,0.171104222536087,91200
0.0,2.28125,2.25,2.265625,0.1722924262285232,254400
0.0,2.2578125,2.21875,2.21875,0.168727770447731,336000
0.0,2.203125,2.171875,2.171875,0.1651631742715835,212800
0.0,2.1875,2.15625,2.171875,0.1651631742715835,740800
0.0,2.1953125,2.171875,2.1875,0.1663513332605362,155200
0.0,2.265625,2.171875,2.25,0.171104222536087,1081600
0.0,2.2734375,2.234375,2.25,0.171104222536087,416000
0.0,2.2578125,2.234375,2.2578125,0.1716983020305633,731200
0.0,2.265625,2.2421875,2.2421875,0.1705100983381271,100800
0.0,2.2421875,2.234375,2.2421875,0.1705100983381271,91200
0.0,2.2421875,2.234375,2.234375,0.1699159443378448,83200
0.0,2.25,2.234375,2.25,0.171104222536087,60800
0.0,2.265625,2.2421875,2.265625,0.1722924262285232,128000
0.0,2.2734375,2.25,2.25,0.171104222536087,236800
0.0,2.265625,2.25,2.265625,0.1722924262285232,96000
0.0,2.3359375,2.25,2.328125,0.1770453453063964,1672000
0.0,2.3671875,2.3359375,2.34375,0.1782334595918655,201600
0.0,2.3515625,2.3359375,2.34375,0.1782334595918655,124800
0.0,2.359375,2.34375,2.3515625,0.1788276880979538,264000
0.0,2.375,2.3359375,2.3515625,0.1788276880979538,488000
0.0,2.3359375,2.328125,2.328125,0.1770453453063964,148800
0.0,2.328125,2.296875,2.3046875,0.1752629727125167,265600
0.0,2.3046875,2.2734375,2.2890625,0.1740747094154358,352000
0.0,2.28125,2.265625,2.28125,0.1734807044267654,428800
0.0,2.2890625,2.265625,2.2890625,0.1740747094154358,124800
0.0,2.28125,2.2578125,2.2578125,0.1716983020305633,100800
0.0,2.2734375,2.25,2.2734375,0.172886461019516,585600
0.0,2.2890625,2.265625,2.28125,0.1734807044267654,180800
0.0,2.296875,2.265625,2.265625,0.1722924262285232,121600
0.0,2.265625,2.25,2.25,0.171104222536087,459200
0.0,2.28125,2.2421875,2.28125,0.1734807044267654,817600
0.0,2.28125,2.25,2.265625,0.1722924262285232,443200
0.0,2.234375,2.203125,2.2265625,0.1693218499422073,796800
0.0,2.2265625,2.2109375,2.2265625,0.1693218499422073,97600
0.0,2.25,2.203125,2.203125,0.1675394773483276,224000
0.0,2.203125,2.1875,2.1953125,0.1669454127550125,113600
0.0,2.203125,2.171875,2.1875,0.1663513332605362,425600
0.0,2.1875,2.15625,2.1875,0.1663513332605362,300800
0.0,2.1875,2.1640625,2.1875,0.1663513332605362,150400
0.0,2.25,2.1875,2.25,0.171104222536087,566400
0.0,2.2734375,2.2109375,2.234375,0.1699159443378448,172800
0.0,2.265625,2.234375,2.25,0.171104222536087,336000
0.0,2.265625,2.234375,2.265625,0.1722924262285232,168000
0.0,2.25,2.234375,2.25,0.171104222536087,521600
0.0,2.265625,2.234375,2.2578125,0.1716983020305633,376000
0.0,2.265625,2.25,2.265625,0.1722924262285232,251200
0.0,2.2734375,2.2578125,2.265625,0.1722924262285232,156800
0.0,2.265625,2.25,2.265625,0.1722924262285232,243200
0.0,2.28125,2.2265625,2.28125,0.1734807044267654,1062400
0.0,2.359375,2.2734375,2.28125,0.1734807044267654,1062400
0.0,2.3125,2.28125,2.296875,0.1746688783168792,531200
0.0,2.296875,2.28125,2.28125,0.1734807044267654,579200
0.0,2.28125,2.2578125,2.2734375,0.172886461019516,180800
0.0,2.28125,2.265625,2.265625,0.1722924262285232,867200
0.0,2.28125,2.25,2.2734375,0.172886461019516,281600
0.0,2.28125,2.2578125,2.2734375,0.172886461019516,1980800
0.0,2.3046875,2.2734375,2.3046875,0.1752629727125167,702400
0.0,2.34375,2.2890625,2.328125,0.1770453453063964,1176000
0.0,2.3515625,2.328125,2.3359375,0.1776394098997116,164800
0.0,2.3671875,2.3203125,2.359375,0.179421842098236,241600
0.0,2.421875,2.34375,2.3984375,0.1823923587799072,377600
0.0,2.3984375,2.3125,2.359375,0.179421842098236,209600
0.0,2.3828125,2.296875,2.34375,0.1782334595918655,243200
0.0,2.3515625,2.296875,2.3125,0.1758570671081543,179200
0.0,2.265625,2.1953125,2.203125,0.1675394773483276,377600
0.0,2.203125,2.171875,2.1875,0.1663513332605362,323200
0.0,2.203125,2.1796875,2.1875,0.1663513332605362,152000
0.0,2.203125,2.171875,2.203125,0.1675394773483276,244800
0.0,2.25,2.1875,2.25,0.171104222536087,182400
0.0,2.265625,2.21875,2.25,0.171104222536087,643200
0.0,2.25,2.234375,2.2421875,0.1705100983381271,235200
0.0,2.21875,2.1875,2.203125,0.1675394773483276,385600
0.0,2.203125,2.1875,2.1875,0.1663513332605362,528000
0.0,2.234375,2.1875,2.1953125,0.1669454127550125,206400
0.0,2.203125,2.15625,2.15625,0.1639748513698578,456000
0.0,2.171875,2.1484375,2.15625,0.1639748513698578,57600
0.0,2.1484375,2.1171875,2.1171875,0.1610043942928314,472000
0.0,2.1015625,2.046875,2.0625,0.1568454504013061,131200
0.0,2.1015625,2.0703125,2.0859375,0.1586278080940246,276800
0.0,2.078125,2.0625,2.0703125,0.1574396193027496,168000
0.0,2.140625,2.0625,2.140625,0.162786602973938,504000
0.0,2.1640625,2.125,2.1640625,0.1645689159631729,384000
0.0,2.1875,2.140625,2.15625,0.1639748513698578,184000
0.0,2.2421875,2.1328125,2.2421875,0.1705100983381271,1203200
0.0,2.265625,2.2265625,2.25,0.171104222536087,97600
0.0,2.3046875,2.234375,2.265625,0.1722924262285232,324800
0.0,2.328125,2.234375,2.328125,0.1770453453063964,1240000
0.0,2.546875,2.3203125,2.546875,0.193680465221405,928000
0.0,2.546875,2.5,2.546875,0.193680465221405,483200
0.0,2.6015625,2.5,2.515625,0.1913040429353714,1252800
0.0,2.5,2.40625,2.421875,0.1841746121644973,296000
0.0,2.375,2.25,2.359375,0.179421842098236,540800
0.0,2.3671875,2.21875,2.296875,0.1746688783168792,680000
0.0,2.3984375,2.2890625,2.3984375,0.1823923587799072,1307200
0.0,2.5546875,2.4375,2.53125,0.1924922168254852,1108800
0.0,2.53125,2.5,2.515625,0.1913040429353714,276800
0.0,2.578125,2.5,2.5234375,0.1918981224298477,1025600
0.0,2.53125,2.5,2.515625,0.1913040429353714,310400
0.0,2.640625,2.5078125,2.640625,0.2008099108934402,820800
0.0,2.65625,2.578125,2.625,0.1996215432882309,768000
0.0,2.671875,2.640625,2.6640625,0.2025921642780304,822400
0.0,2.703125,2.625,2.6875,0.2043744474649429,2556800
0.0,2.765625,2.609375,2.640625,0.2008099108934402,1601600
0.0,2.640625,2.578125,2.625,0.1996215432882309,1859200
0.0,2.6015625,2.5625,2.5625,0.19486865401268,329600
0.0,2.59375,2.5625,2.5859375,0.1966510564088821,753600
0.0,2.6484375,2.578125,2.625,0.1996215432882309,358400
0.0,2.6875,2.625,2.65625,0.2019979655742645,262400
0.0,2.6953125,2.640625,2.6640625,0.2025921642780304,358400
0.0,2.6484375,2.578125,2.59375,0.197245255112648,187200
0.0,2.640625,2.578125,2.625,0.1996215432882309,313600
0.0,2.65625,2.5703125,2.578125,0.1960569471120834,601600
0.0,2.625,2.5703125,2.625,0.1996215432882309,201600
0.0,2.71875,2.625,2.7109375,0.2061567157506942,532800
0.0,2.71875,2.6640625,2.703125,0.2055625319480896,464000
0.0,2.71875,2.6875,2.703125,0.2055625319480896,472000
0.0,2.703125,2.65625,2.6875,0.2043744474649429,617600
0.0,2.6796875,2.625,2.6796875,0.203780323266983,196800
0.0,2.671875,2.609375,2.640625,0.2008099108934402,156800
0.0,2.65625,2.6015625,2.609375,0.1984333097934723,345600
0.0,2.640625,2.5625,2.59375,0.197245255112648,428800
0.0,2.59375,2.53125,2.546875,0.193680465221405,601600
0.0,2.5546875,2.5390625,2.546875,0.193680465221405,329600
0.0,2.5859375,2.546875,2.5859375,0.1966510564088821,427200
0.0,2.6328125,2.59375,2.625,0.1996215432882309,334400
0.0,2.9375,2.609375,2.9375,0.2233861535787582,4424000
0.0,3.09375,2.875,3.046875,0.2317036837339401,5041600
0.0,3.15625,2.9921875,3.15625,0.240021139383316,3398400
0.0,3.234375,3.140625,3.2109375,0.2441799789667129,3272000
0.0,3.234375,3.09375,3.1484375,0.2394269555807113,3803200
0.0,3.125,3.0625,3.125,0.2376446723937988,1982400
0.0,3.1171875,2.984375,3.0,0.2281389087438583,1225600
0.0,3.0390625,2.890625,3.03125,0.2305153608322143,1899200
0.0,3.0625,2.96875,3.0625,0.2328917235136032,712000
0.0,3.046875,2.9375,2.9609375,0.2251684665679931,497600
0.0,2.984375,2.9140625,2.96875,0.2257625013589859,1625600
0.0,3.09375,2.9375,3.078125,0.2340801209211349,1329600
0.0,3.140625,3.09375,3.125,0.2376446723937988,1672000
0.0,3.140625,3.0625,3.109375,0.2364565283060073,566400
0.0,3.1875,3.1171875,3.1640625,0.2406152486801147,2062400
0.0,3.296875,3.125,3.21875,0.2447738796472549,1782400
0.0,3.265625,3.171875,3.171875,0.2412093877792358,648000
0.0,3.25,3.15625,3.1953125,0.2429917752742767,884800
0.0,3.234375,3.171875,3.21875,0.2447738796472549,368000
0.0,3.25,3.125,3.1796875,0.2418033480644226,760000
0.0,3.4921875,3.171875,3.453125,0.2625974118709564,6833600
0.0,3.46875,3.34375,3.34375,0.2542797923088074,2190400
0.0,3.4609375,3.328125,3.390625,0.2578445374965668,1571200
0.0,3.3984375,3.28125,3.28125,0.2495268434286117,1011200
0.0,3.3984375,3.328125,3.3828125,0.257250428199768,1208000
0.0,3.4375,3.3359375,3.40625,0.2590328752994537,1326400
0.0,3.421875,3.28125,3.359375,0.2554681897163391,723200
0.0,3.3671875,3.28125,3.296875,0.2507151961326599,817600
0.0,3.609375,3.3125,3.609375,0.2744795978069305,2217600
0.0,3.640625,3.515625,3.546875,0.2697267532348633,2635200
0.0,3.5859375,3.46875,3.484375,0.264973908662796,968000
0.0,3.5625,3.46875,3.515625,0.267350435256958,2723200
0.0,3.5625,3.46875,3.5625,0.2709149420261383,1227200
0.0,3.609375,3.5625,3.578125,0.2721032798290252,1553600
0.0,3.5625,3.484375,3.5,0.2661620080471039,555200
0.0,3.5078125,3.4375,3.4921875,0.2655681371688843,665600
0.0,3.5234375,3.4765625,3.5234375,0.2679444551467895,716800
0.0,3.53125,3.4921875,3.515625,0.267350435256958,400000
0.0,3.5234375,3.296875,3.296875,0.2507151961326599,1460800
0.0,3.3671875,3.28125,3.3203125,0.2524973750114441,824000
0.0,3.421875,3.3125,3.3828125,0.257250428199768,907200
0.0,3.421875,3.34375,3.40625,0.2590328752994537,995200
0.0,3.453125,3.375,3.40625,0.2590328752994537,1088000
0.0,3.390625,3.234375,3.2890625,0.2501209676265716,592000
0.0,3.25,3.15625,3.1796875,0.2418033480644226,633600
0.0,3.2109375,3.1640625,3.1875,0.2423976212739944,756800
0.0,3.296875,3.171875,3.25,0.2471505999565124,1225600
0.0,3.25,3.171875,3.1953125,0.2429917752742767,536000
0.0,3.140625,3.09375,3.1015625,0.2358623594045639,937600
0.0,3.15625,3.109375,3.1171875,0.2370506525039672,716800
0.0,3.203125,3.109375,3.1875,0.2423976212739944,876800
0.0,3.203125,3.1640625,3.1875,0.2423976212739944,827200
0.0,3.2109375,3.1015625,3.1015625,0.2358623594045639,372800
0.0,3.109375,3.0625,3.078125,0.2340801209211349,782400
0.0,3.125,3.046875,3.09375,0.2352683246135711,374400
0.0,3.203125,3.078125,3.125,0.2376446723937988,1054400
0.0,3.15625,3.109375,3.140625,0.2388330250978469,748800
0.0,3.1484375,3.1171875,3.1328125,0.2382389307022094,348800
0.0,3.203125,3.125,3.1875,0.2423976212739944,654400
0.0,3.40625,3.203125,3.3984375,0.2584385871887207,1464000
0.0,3.3984375,3.3203125,3.375,0.256656289100647,801600
0.0,3.3671875,3.296875,3.328125,0.2530916631221771,388800
0.0,3.328125,3.2890625,3.328125,0.2530916631221771,444800
0.0,3.359375,3.265625,3.2734375,0.2489329576492309,400000
0.0,3.296875,3.234375,3.234375,0.2459623366594314,273600
0.0,3.21875,3.171875,3.203125,0.2435857653617859,212800
0.0,3.2421875,3.140625,3.140625,0.2388330250978469,1132800
0.0,3.125,3.0,3.0625,0.2328917235136032,675200
0.0,3.046875,2.9375,2.9609375,0.2251684665679931,411200
0.0,2.9765625,2.9453125,2.96875,0.2257625013589859,344000
0.0,3.0390625,2.921875,3.03125,0.2305153608322143,1054400
0.0,3.078125,3.015625,3.03125,0.2305153608322143,347200
0.0,3.078125,3.0,3.046875,0.2317036837339401,750400
0.0,3.0859375,3.0,3.0625,0.2328917235136032,369600
0.0,3.15625,3.078125,3.15625,0.240021139383316,139200
0.0,3.140625,3.0859375,3.09375,0.2352683246135711,171200
0.0,3.140625,3.078125,3.140625,0.2388330250978469,233600
0.0,3.1328125,3.1015625,3.109375,0.2364565283060073,150400
0.0,3.09375,3.0546875,3.078125,0.2340801209211349,256000
0.0,3.078125,3.0078125,3.015625,0.2293271869421005,185600
0.0,3.0,2.9375,2.953125,0.2245742678642273,196800
0.0,2.984375,2.9375,2.9609375,0.2251684665679931,363200
0.0,2.9921875,2.9453125,2.96875,0.2257625013589859,195200
0.0,2.9765625,2.90625,2.9375,0.2233861535787582,224000
0.0,2.9609375,2.921875,2.9375,0.2233861535787582,192000
0.0,2.9296875,2.828125,2.875,0.2186330109834671,332800
0.0,2.921875,2.875,2.9140625,0.2216036021709442,454400
0.0,2.9609375,2.9140625,2.9375,0.2233861535787582,284800
0.0,2.953125,2.921875,2.9453125,0.2239802777767181,190400
0.0,2.953125,2.921875,2.9375,0.2233861535787582,67200
0.0,2.9296875,2.890625,2.90625,0.2210095375776291,198400
0.0,2.8984375,2.796875,2.8046875,0.2132861018180847,302400
0.0,2.8125,2.7421875,2.765625,0.2103155702352523,870400
0.0,2.75,2.71875,2.75,0.2091274261474609,662400
0.0,2.7578125,2.7109375,2.71875,0.2067508101463318,360000
0.0,2.7265625,2.6875,2.6953125,0.204968586564064,428800
0.0,2.7109375,2.6875,2.703125,0.2055625319480896,577600
0.0,2.875,2.6953125,2.796875,0.2126920372247696,2560000
0.0,2.8359375,2.796875,2.8359375,0.2156625241041183,1044800
0.0,2.8984375,2.828125,2.84375,0.2162564992904663,542400
0.0,2.84375,2.75,2.765625,0.2103155702352523,889600
0.0,2.8125,2.7421875,2.7421875,0.2085332870483398,651200
0.0,2.765625,2.703125,2.703125,0.2055625319480896,379200
0.0,2.7578125,2.671875,2.7265625,0.2073450237512588,664000
0.0,2.765625,2.71875,2.75,0.2091274261474609,174400
0.0,2.78125,2.71875,2.71875,0.2067508101463318,350400
0.0,2.78125,2.703125,2.78125,0.211503729224205,1201600
0.0,2.8359375,2.78125,2.796875,0.2126920372247696,1441600
0.0,2.8203125,2.7734375,2.7890625,0.2120980024337768,329600
0.0,2.8125,2.78125,2.78125,0.211503729224205,241600
0.0,2.8125,2.7734375,2.796875,0.2126920372247696,460800
0.0,2.8125,2.7578125,2.796875,0.2126920372247696,310400
0.0,2.890625,2.796875,2.890625,0.2198213338851928,454400
0.0,2.9453125,2.859375,2.875,0.2186330109834671,1337600
0.0,2.890625,2.8359375,2.8515625,0.2168507575988769,129600
0.0,2.875,2.8359375,2.875,0.2186330109834671,798400
0.0,2.96875,2.890625,2.953125,0.2245742678642273,822400
0.0,2.984375,2.875,2.8828125,0.2192272096872329,324800
0.0,2.875,2.8359375,2.859375,0.217444971203804,112000
0.0,2.9296875,2.8515625,2.90625,0.2210095375776291,268800
0.0,2.921875,2.8515625,2.8828125,0.2192272096872329,265600
0.0,2.8828125,2.8125,2.8359375,0.2156625241041183,1198400
0.0,2.859375,2.828125,2.859375,0.217444971203804,326400
0.0,2.8671875,2.8515625,2.8515625,0.2168507575988769,166400
0.0,2.859375,2.828125,2.8359375,0.2156625241041183,675200
0.0,2.8515625,2.828125,2.8515625,0.2168507575988769,747200
0.0,2.8984375,2.8359375,2.8828125,0.2192272096872329,464000
0.0,2.890625,2.8671875,2.8671875,0.2180391252040863,120000
0.0,2.875,2.8671875,2.8671875,0.2180391252040863,112000
0.0,2.875,2.8671875,2.8671875,0.2180391252040863,248000
0.0,2.8671875,2.859375,2.859375,0.217444971203804,196800
0.0,2.875,2.8671875,2.8671875,0.2180391252040863,342400
0.0,2.8984375,2.875,2.8828125,0.2192272096872329,153600
0.0,2.890625,2.859375,2.859375,0.217444971203804,315200
0.0,2.84375,2.796875,2.8125,0.2138802260160446,465600
0.0,2.7890625,2.65625,2.6953125,0.204968586564064,449600
0.0,2.703125,2.6640625,2.6875,0.2043744474649429,278400
0.0,2.7578125,2.6875,2.7265625,0.2073450237512588,217600
0.0,2.7265625,2.6875,2.703125,0.2055625319480896,230400
0.0,2.71875,2.6953125,2.7109375,0.2061567157506942,393600
0.0,2.75,2.703125,2.703125,0.2055625319480896,355200
0.0,2.734375,2.703125,2.734375,0.2079391479492187,403200
0.0,2.734375,2.7109375,2.7109375,0.2061567157506942,89600
0.0,2.703125,2.6328125,2.640625,0.2008099108934402,1006400
0.0,2.6484375,2.640625,2.6484375,0.2014038860797882,283200
0.0,2.6484375,2.6328125,2.6484375,0.2014038860797882,240000
0.0,2.625,2.59375,2.609375,0.1984333097934723,523200
0.0,2.640625,2.578125,2.59375,0.197245255112648,484800
0.0,2.59375,2.4609375,2.46875,0.1877393275499344,366400
0.0,2.546875,2.390625,2.546875,0.193680465221405,694400
0.0,2.625,2.5625,2.5625,0.19486865401268,737600
0.0,2.5546875,2.5,2.515625,0.1913040429353714,313600
0.0,2.5234375,2.453125,2.4921875,0.1895217597484588,964800
0.0,2.5234375,2.4765625,2.5234375,0.1918981224298477,2206400
0.0,2.53125,2.4765625,2.4921875,0.1895217597484588,516800
0.0,2.4921875,2.421875,2.4375,0.1853627264499664,513600
0.0,2.4375,2.40625,2.421875,0.1841746121644973,182400
0.0,2.4609375,2.40625,2.453125,0.1865510493516922,644800
0.0,2.453125,2.421875,2.4375,0.1853627264499664,329600
0.0,2.4375,2.4140625,2.4375,0.1853627264499664,387200
0.0,2.4453125,2.421875,2.4296875,0.1847686767578125,110400
0.0,2.4375,2.421875,2.421875,0.1841746121644973,70400
0.0,2.4375,2.421875,2.4296875,0.1847686767578125,132800
0.0,2.453125,2.4296875,2.4296875,0.1847686767578125,1144000
0.0,2.4453125,2.4140625,2.4453125,0.1859569549560547,216000
0.0,2.421875,2.390625,2.390625,0.1817982196807861,1475200
0.0,2.4140625,2.375,2.390625,0.1817982196807861,419200
0.0,2.3828125,2.3125,2.34375,0.1782334595918655,283200
0.0,2.359375,2.2890625,2.296875,0.1746688783168792,372800
0.0,2.328125,2.2890625,2.3046875,0.1752629727125167,108800
0.0,2.3671875,2.3046875,2.3515625,0.1788276880979538,153600
0.0,2.421875,2.3515625,2.3828125,0.1812040507793426,648000
0.0,2.3828125,2.3515625,2.359375,0.179421842098236,318400
0.0,2.390625,2.3515625,2.390625,0.1817982196807861,491200
0.0,2.46875,2.4140625,2.4375,0.1853627264499664,1241600
0.0,2.53125,2.4453125,2.53125,0.1924922168254852,411200
0.0,2.53125,2.5,2.5078125,0.1907099336385727,1062400
0.0,2.5625,2.5078125,2.546875,0.193680465221405,451200
0.0,2.5703125,2.515625,2.5625,0.19486865401268,161600
0.0,2.5703125,2.5390625,2.5703125,0.1954628676176071,91200
0.0,2.6171875,2.59375,2.59375,0.197245255112648,137600
0.0,2.6171875,2.59375,2.6171875,0.1990274935960769,331200
0.0,2.640625,2.59375,2.609375,0.1984333097934723,236800
0.0,2.59375,2.53125,2.5546875,0.1942745596170425,358400
0.0,2.53125,2.453125,2.4765625,0.1883334219455719,284800
0.0,2.5,2.46875,2.4921875,0.1895217597484588,500800
0.0,2.5,2.46875,2.46875,0.1877393275499344,926400
0.0,2.484375,2.4609375,2.4765625,0.1883334219455719,518400
0.0,2.5,2.4765625,2.5,0.1901158541440963,86400
0.0,2.4921875,2.4453125,2.4609375,0.1871452778577804,190400
0.0,2.46875,2.4453125,2.4609375,0.1871452778577804,150400
0.0,2.484375,2.4453125,2.453125,0.1865510493516922,1275200
0.0,2.4765625,2.453125,2.4765625,0.1883334219455719,196800
0.0,2.53125,2.4609375,2.515625,0.1913040429353714,275200
0.0,2.5234375,2.453125,2.484375,0.1889275759458542,657600
0.0,2.5078125,2.4453125,2.484375,0.1889275759458542,364800
0.0,2.515625,2.4765625,2.515625,0.1913040429353714,422400
0.0,2.53125,2.5,2.515625,0.1913040429353714,1816000
0.0,2.53125,2.46875,2.4921875,0.1895217597484588,400000
0.0,2.4921875,2.4609375,2.46875,0.1877393275499344,201600
0.0,2.4921875,2.4609375,2.484375,0.1889275759458542,347200
0.0,2.5,2.4609375,2.4921875,0.1895217597484588,403200
0.0,2.515625,2.484375,2.515625,0.1913040429353714,281600
0.0,2.4921875,2.4375,2.453125,0.1865510493516922,860800
0.0,2.453125,2.390625,2.4453125,0.1859569549560547,264000
0.0,2.453125,2.4375,2.4453125,0.1859569549560547,113600
0.0,2.453125,2.4375,2.4375,0.1853627264499664,363200
0.0,2.4453125,2.421875,2.421875,0.1841746121644973,209600
0.0,2.4375,2.375,2.375,0.1806099563837051,670400
0.0,2.390625,2.359375,2.375,0.1806099563837051,240000
0.0,2.3828125,2.3515625,2.375,0.1806099563837051,388800
0.0,2.3828125,2.3671875,2.3828125,0.1812040507793426,520000
0.0,2.375,2.3125,2.3125,0.1758570671081543,1014400
0.0,2.328125,2.3125,2.3125,0.1758570671081543,248000
0.0,2.3359375,2.3125,2.328125,0.1770453453063964,195200
0.0,2.375,2.21875,2.359375,0.179421842098236,580800
0.0,2.3671875,2.3359375,2.3671875,0.1800159066915512,728000
0.0,2.359375,2.296875,2.328125,0.1770453453063964,278400
0.0,2.328125,2.2890625,2.328125,0.1770453453063964,336000
0.0,2.3359375,2.28125,2.296875,0.1746688783168792,408000
0.0,2.3125,2.2578125,2.265625,0.1722924262285232,228800
0.0,2.265625,2.1875,2.1875,0.1663513332605362,5382400
0.0,2.2109375,2.15625,2.203125,0.1675394773483276,358400
0.0,2.21875,2.171875,2.1875,0.1663513332605362,507200
0.0,2.1796875,2.15625,2.1796875,0.1657571792602539,177600
0.0,2.1875,2.140625,2.15625,0.1639748513698578,291200
0.0,2.1328125,2.0,2.0625,0.1568454504013061,10244800
0.0,2.0859375,2.0390625,2.0546875,0.1562514007091522,312000
0.0,2.0625,2.0234375,2.046875,0.1556573063135147,492800
0.0,2.046875,2.0234375,2.046875,0.1556573063135147,321600
0.0,2.03125,2.0,2.03125,0.1544690132141113,1499200
0.0,2.03125,2.0,2.015625,0.153280958533287,403200
0.0,2.015625,1.96875,2.0,0.1520925760269165,1643200
0.0,2.0078125,1.9921875,2.0078125,0.1526867002248764,345600
0.0,2.0390625,1.9921875,2.0390625,0.1550632268190384,492800
0.0,2.09375,2.0625,2.0859375,0.1586278080940246,1184000
0.0,2.078125,2.03125,2.046875,0.1556573063135147,243200
0.0,2.0625,2.0078125,2.0625,0.1568454504013061,283200
0.0,2.0703125,2.0390625,2.0703125,0.1574396193027496,523200
0.0,2.078125,2.046875,2.078125,0.1580337136983871,222400
0.0,2.1484375,2.0703125,2.1484375,0.1633806973695755,353600
0.0,2.125,2.078125,2.078125,0.1580337136983871,721600
0.0,2.046875,2.015625,2.0390625,0.1550632268190384,203200
0.0,2.0390625,2.015625,2.0390625,0.1550632268190384,596800
0.0,2.0390625,1.9296875,1.953125,0.1485278457403183,480000
0.0,1.9765625,1.9375,1.9765625,0.1503103077411651,304000
0.0,1.984375,1.9375,1.984375,0.1509043872356414,512000
0.0,2.0,1.9609375,1.9765625,0.1503103077411651,233600
0.0,1.9765625,1.9375,1.9765625,0.1503103077411651,363200
0.0,1.984375,1.9453125,1.96875,0.149716168642044,192000
0.0,2.0234375,1.9375,1.9453125,0.1479338407516479,1331200
0.0,1.96875,1.9453125,1.9609375,0.1491220891475677,182400
0.0,1.9609375,1.921875,1.953125,0.1485278457403183,2142400
0.0,1.9765625,1.953125,1.953125,0.1485278457403183,889600
0.0,1.96875,1.9453125,1.9609375,0.1491220891475677,939200
0.0,1.96875,1.9375,1.9375,0.1473398059606552,419200
0.0,1.953125,1.921875,1.9296875,0.1467455923557281,336000
0.0,1.9296875,1.890625,1.90625,0.1449633240699768,409600
0.0,1.921875,1.8828125,1.890625,0.1437750458717346,235200
0.0,1.90625,1.875,1.875,0.1425867676734924,265600
0.0,1.8828125,1.84375,1.84375,0.14021036028862,560000
0.0,1.8515625,1.8125,1.828125,0.1390221416950225,1928000
0.0,1.859375,1.8203125,1.859375,0.1413985788822174,656000
0.0,1.9375,1.84375,1.9375,0.1473398059606552,712000
0.0,1.9609375,1.90625,1.9609375,0.1491220891475677,336000
0.0,2.0,1.9453125,1.9921875,0.151498481631279,176000
0.0,2.0078125,1.9765625,2.0078125,0.1526867002248764,998400
0.0,2.0234375,1.96875,2.0,0.1520925760269165,952000
0.0,2.0,1.9375,1.96875,0.149716168642044,616000
0.0,1.96875,1.9375,1.96875,0.149716168642044,812800
0.0,1.96875,1.9375,1.9609375,0.1491220891475677,342400
0.0,2.015625,1.9609375,1.9921875,0.151498481631279,1097600
0.0,2.03125,2.0,2.015625,0.153280958533287,291200
0.0,2.0,1.96875,1.9921875,0.151498481631279,1993600
0.0,1.9921875,1.953125,1.9609375,0.1491220891475677,265600
0.0,1.984375,1.9609375,1.984375,0.1509043872356414,44800
0.0,2.0078125,1.9765625,1.9921875,0.151498481631279,248000
0.0,1.984375,1.96875,1.9765625,0.1503103077411651,72000
0.0,2.0,1.96875,2.0,0.1520925760269165,228800
0.0,2.015625,1.9765625,2.0078125,0.1526867002248764,385600
0.0,2.03125,2.0,2.0078125,0.1526867002248764,372800
0.0,2.0234375,2.0078125,2.015625,0.153280958533287,211200
0.0,2.03125,2.0078125,2.03125,0.1544690132141113,254400
0.0,2.046875,2.015625,2.0234375,0.1538749784231186,155200
0.0,2.0390625,2.0078125,2.0234375,0.1538749784231186,131200
0.0,2.046875,2.0234375,2.0390625,0.1550632268190384,312000
0.0,2.0546875,2.0234375,2.0546875,0.1562514007091522,408000
0.0,2.0546875,2.0,2.0078125,0.1526867002248764,2214400
0.0,2.015625,1.984375,2.0,0.1520925760269165,672000
0.0,2.015625,1.9921875,2.015625,0.153280958533287,412800
0.0,2.015625,2.0,2.015625,0.153280958533287,228800
0.0,2.03125,2.0,2.015625,0.153280958533287,352000
0.0,2.03125,2.0,2.015625,0.153280958533287,467200
0.0,2.0546875,2.0078125,2.0546875,0.1562514007091522,787200
0.0,2.1171875,2.0703125,2.1171875,0.1610043942928314,516800
0.0,2.15625,2.109375,2.1171875,0.1610043942928314,404800
0.0,2.1484375,2.1171875,2.125,0.1615983545780182,116800
0.0,2.125,2.078125,2.0859375,0.1586278080940246,249600
0.0,2.1328125,2.046875,2.1328125,0.1621925085783004,862400
0.0,2.1640625,2.09375,2.15625,0.1639748513698578,3374400
0.0,2.15625,2.1015625,2.1171875,0.1610043942928314,3448000
0.0,2.140625,2.09375,2.1171875,0.1610043942928314,745600
0.0,2.140625,2.1015625,2.109375,0.1604101359844207,491200
0.0,2.125,2.09375,2.109375,0.1604101359844207,235200
0.0,2.125,2.09375,2.1015625,0.159816175699234,78400
0.0,2.140625,2.1015625,2.1328125,0.1621925085783004,164800
0.0,2.171875,2.1171875,2.140625,0.162786602973938,316800
0.0,2.1484375,2.0625,2.078125,0.1580337136983871,2137600
0.0,2.109375,2.0625,2.109375,0.1604101359844207,3348800
0.0,2.125,2.09375,2.109375,0.1604101359844207,280000
0.0,2.125,2.1015625,2.109375,0.1604101359844207,369600
0.0,2.15625,2.109375,2.125,0.1615983545780182,539200
0.0,2.140625,2.1015625,2.140625,0.162786602973938,315200
0.0,2.140625,2.09375,2.125,0.1615983545780182,737600
0.0,2.125,2.09375,2.1015625,0.159816175699234,81600
0.0,2.109375,2.0703125,2.0859375,0.1586278080940246,195200
0.0,2.09375,2.0703125,2.0703125,0.1574396193027496,376000
0.0,2.0703125,2.015625,2.0703125,0.1574396193027496,241600
0.0,2.0859375,2.0546875,2.078125,0.1580337136983871,100800
0.0,2.0859375,1.96875,1.984375,0.1509043872356414,196800
0.0,2.03125,1.984375,2.03125,0.1544690132141113,427200
0.0,2.078125,2.0,2.015625,0.153280958533287,928000
0.0,2.0,1.921875,1.9375,0.1473398059606552,1617600
0.0,1.953125,1.9140625,1.921875,0.1461514830589294,307200
0.0,1.921875,1.890625,1.8984375,0.1443691849708557,337600
0.0,1.890625,1.828125,1.8359375,0.1396162658929824,2569600
0.0,1.875,1.8203125,1.8671875,0.1419926881790161,107200
0.0,1.9140625,1.8984375,1.9140625,0.1455574333667755,646400
0.0,1.921875,1.890625,1.921875,0.1461514830589294,726400
0.0,1.921875,1.890625,1.921875,0.1461514830589294,846400
0.0,1.9453125,1.921875,1.9375,0.1473398059606552,409600
0.0,1.9296875,1.90625,1.9296875,0.1467455923557281,161600
0.0,1.9453125,1.90625,1.921875,0.1461514830589294,121600
0.0,1.921875,1.8828125,1.8984375,0.1443691849708557,140800
0.0,1.90625,1.8828125,1.90625,0.1449633240699768,100800
0.0,1.9609375,1.9140625,1.953125,0.1485278457403183,182400
0.0,1.9921875,1.953125,1.9609375,0.1491220891475677,635200
0.0,1.984375,1.9453125,1.9765625,0.1503103077411651,168000
0.0,2.0234375,1.984375,2.0,0.1520925760269165,752000
0.0,2.09375,2.0,2.09375,0.1592219471931457,566400
0.0,2.0859375,2.03125,2.078125,0.1580337136983871,728000
0.0,2.0859375,2.0625,2.0859375,0.1586278080940246,1262400
0.0,2.078125,2.0703125,2.078125,0.1580337136983871,228800
0.0,2.0859375,2.046875,2.046875,0.1556573063135147,910400
0.0,2.0625,2.0,2.0,0.1520925760269165,244800
0.0,2.046875,2.0,2.0390625,0.1550632268190384,256000
0.0,2.0625,2.0390625,2.0625,0.1568454504013061,971200
0.0,2.09375,2.046875,2.0625,0.1568454504013061,321600
0.0,2.0703125,2.046875,2.046875,0.1556573063135147,1595200
0.0,2.03125,2.0,2.015625,0.153280958533287,80000
0.0,2.046875,2.0,2.03125,0.1544690132141113,219200
0.0,2.03125,2.0,2.0234375,0.1538749784231186,1366400
0.0,2.0625,2.03125,2.046875,0.1556573063135147,1960000
0.0,2.09375,2.046875,2.0859375,0.1586278080940246,907200
0.0,2.1796875,2.09375,2.171875,0.1651631742715835,1259200
0.0,2.21875,2.1640625,2.203125,0.1675394773483276,206400
0.0,2.2265625,2.171875,2.1875,0.1663513332605362,185600
0.0,2.2421875,2.1875,2.2421875,0.1705100983381271,324800
0.0,2.2265625,2.2109375,2.2265625,0.1693218499422073,184000
0.0,2.21875,2.1328125,2.140625,0.162786602973938,358400
0.0,2.203125,2.109375,2.203125,0.1675394773483276,401600
0.0,2.2265625,2.1953125,2.2265625,0.1693218499422073,336000
0.0,2.28125,2.21875,2.2734375,0.172886461019516,564800
0.0,2.28125,2.234375,2.25,0.171104222536087,1036800
0.0,2.203125,2.140625,2.1484375,0.1633806973695755,4504000
0.0,2.140625,2.09375,2.1171875,0.1610043942928314,241600
0.0,2.1171875,2.03125,2.03125,0.1544690132141113,753600
0.0,2.0546875,2.0078125,2.0546875,0.1562514007091522,225600
0.0,2.078125,2.046875,2.078125,0.1580337136983871,363200
0.0,2.0859375,2.0703125,2.078125,0.1580337136983871,219200
0.0,2.1015625,2.0703125,2.0859375,0.1586278080940246,756800
0.0,2.1171875,2.0859375,2.109375,0.1604101359844207,801600
0.0,2.1328125,2.1015625,2.1171875,0.1610043942928314,670400
0.0,2.1796875,2.125,2.1796875,0.1657571792602539,614400
0.0,2.34375,2.25,2.296875,0.1746688783168792,2147200
0.0,2.3125,2.28125,2.3125,0.1758570671081543,1566400
0.0,2.484375,2.328125,2.4375,0.1853627264499664,1852800
0.0,2.5,2.4140625,2.421875,0.1841746121644973,1672000
0.0,2.4375,2.375,2.40625,0.1829863786697387,1491200
0.0,2.5078125,2.375,2.4375,0.1853627264499664,1664000
0.0,2.53125,2.40625,2.4453125,0.1859569549560547,1835200
0.0,2.453125,2.375,2.40625,0.1829863786697387,1766400
0.0,2.515625,2.40625,2.515625,0.1913040429353714,1560000
0.0,2.59375,2.53125,2.53125,0.1924922168254852,1078400
0.0,2.5625,2.515625,2.515625,0.1913040429353714,611200
0.0,2.5234375,2.390625,2.4765625,0.1883334219455719,681600
0.0,2.5546875,2.4921875,2.5390625,0.1930863559246063,932800
0.0,2.5625,2.53125,2.546875,0.193680465221405,1057600
0.0,2.5546875,2.53125,2.53125,0.1924922168254852,369600
0.0,2.5546875,2.53125,2.53125,0.1924922168254852,905600
0.0,2.53125,2.4453125,2.484375,0.1889275759458542,1099200
0.0,2.4921875,2.40625,2.484375,0.1889275759458542,2040000
0.0,2.5390625,2.4765625,2.484375,0.1889275759458542,827200
0.0,2.515625,2.453125,2.515625,0.1913040429353714,534400
0.0,2.53125,2.4609375,2.4921875,0.1895217597484588,1214400
0.0,2.515625,2.4453125,2.46875,0.1877393275499344,1208000
0.0,2.4921875,2.4375,2.4921875,0.1895217597484588,584000
0.0,2.515625,2.4765625,2.515625,0.1913040429353714,1401600
0.0,2.6171875,2.578125,2.5859375,0.1966510564088821,2398400
0.0,2.5625,2.5390625,2.5625,0.19486865401268,457600
0.0,2.5625,2.53125,2.5625,0.19486865401268,444800
0.0,2.5625,2.53125,2.546875,0.193680465221405,627200
0.0,2.59375,2.546875,2.546875,0.193680465221405,1088000
0.0,2.5625,2.5,2.5,0.1901158541440963,868800
0.0,2.484375,2.421875,2.4609375,0.1871452778577804,380800
0.0,2.5,2.4453125,2.5,0.1901158541440963,617600
0.0,2.515625,2.4765625,2.5078125,0.1907099336385727,1147200
0.0,2.53125,2.5,2.515625,0.1913040429353714,1032000
0.0,2.5703125,2.515625,2.5625,0.19486865401268,1368000
0.0,2.625,2.5625,2.609375,0.1984333097934723,841600
0.0,2.609375,2.578125,2.59375,0.197245255112648,324800
0.0,2.640625,2.5859375,2.6171875,0.1990274935960769,542400
0.0,2.6796875,2.625,2.6796875,0.203780323266983,1148800
0.0,2.84375,2.671875,2.828125,0.215068519115448,668800
0.0,2.84375,2.65625,2.65625,0.2019979655742645,795200
0.0,2.65625,2.59375,2.6328125,0.2002156376838684,521600
0.0,2.734375,2.6484375,2.734375,0.2079391479492187,326400
0.0,2.8125,2.75,2.8046875,0.2132861018180847,448000
0.0,2.9375,2.8125,2.875,0.2186330109834671,1268800
0.0,3.0234375,2.9140625,2.96875,0.2257625013589859,7321600
0.0,3.140625,3.046875,3.0703125,0.2334858626127243,2614400
0.0,3.0625,2.875,2.890625,0.2198213338851928,764800
0.0,2.921875,2.828125,2.921875,0.2221978604793548,988800
0.0,3.0703125,2.984375,3.0703125,0.2334858626127243,780800
0.0,3.0859375,3.0546875,3.0625,0.2328917235136032,1020800
0.0,3.0703125,2.96875,3.0078125,0.2287331521511078,1156800
0.0,3.0078125,2.9453125,3.0,0.2281389087438583,1216000
0.0,3.0390625,2.9765625,3.015625,0.2293271869421005,1259200
0.0,3.1796875,3.015625,3.15625,0.240021139383316,1827200
0.0,3.3515625,3.234375,3.25,0.2471505999565124,2828800
0.0,3.3359375,3.09375,3.3359375,0.2536858320236206,1425600
0.0,3.3046875,3.1875,3.2734375,0.2489329576492309,732800
0.0,3.296875,3.21875,3.21875,0.2447738796472549,1198400
0.0,3.2734375,3.21875,3.234375,0.2459623366594314,739200
0.0,3.21875,3.15625,3.1640625,0.2406152486801147,705600
0.0,3.203125,3.1640625,3.171875,0.2412093877792358,312000
0.0,3.171875,3.03125,3.0625,0.2328917235136032,1032000
0.0,3.09375,3.015625,3.0625,0.2328917235136032,918400
0.0,3.140625,3.078125,3.109375,0.2364565283060073,1840000
0.0,3.1484375,3.09375,3.140625,0.2388330250978469,504000
0.0,3.1875,3.109375,3.109375,0.2364565283060073,796800
0.0,3.2109375,3.078125,3.078125,0.2340801209211349,769600
0.0,3.125,2.921875,2.921875,0.2221978604793548,617600
0.0,3.0625,2.9375,3.0390625,0.2311094552278518,529600
0.0,3.125,3.0546875,3.109375,0.2364565283060073,344000
0.0,3.171875,3.1171875,3.140625,0.2388330250978469,272000
0.0,3.171875,3.109375,3.140625,0.2388330250978469,496000
0.0,3.234375,3.1875,3.203125,0.2435857653617859,611200
0.0,3.28125,3.203125,3.234375,0.2459623366594314,649600
0.0,3.25,3.1875,3.21875,0.2447738796472549,412800
0.0,3.265625,3.21875,3.25,0.2471505999565124,459200
0.0,3.3125,3.25,3.265625,0.2483386397361755,1816000
0.0,3.28125,3.21875,3.21875,0.2447738796472549,244800
0.0,3.1875,3.15625,3.15625,0.240021139383316,126400
0.0,3.1796875,3.078125,3.09375,0.2352683246135711,145600
0.0,3.0625,2.984375,3.0,0.2281389087438583,572800
0.0,3.078125,3.0,3.0,0.2281389087438583,286400
0.0,3.0,2.96875,2.9765625,0.2263564020395279,160000
0.0,2.96875,2.8828125,2.9453125,0.2239802777767181,1177600
0.0,3.09375,3.015625,3.09375,0.2352683246135711,291200
0.0,3.09375,3.046875,3.078125,0.2340801209211349,868800
0.0,3.109375,3.078125,3.109375,0.2364565283060073,160000
0.0,3.234375,3.109375,3.234375,0.2459623366594314,694400
0.0,3.3125,3.265625,3.28125,0.2495268434286117,291200
0.0,3.28125,3.109375,3.2109375,0.2441799789667129,803200
0.0,3.328125,3.203125,3.296875,0.2507151961326599,744000
0.0,3.3046875,3.234375,3.28125,0.2495268434286117,473600
0.0,3.3125,3.265625,3.265625,0.2483386397361755,315200
0.0,3.25,3.2109375,3.234375,0.2459623366594314,145600
0.0,3.171875,3.140625,3.15625,0.240021139383316,499200
0.0,3.21875,3.140625,3.21875,0.2447738796472549,353600
0.0,3.296875,3.234375,3.2578125,0.2477445751428604,515200
0.0,3.46875,3.265625,3.421875,0.2602209746837616,1033600
0.0,3.609375,3.421875,3.5703125,0.2715091407299042,2430400
0.0,3.5390625,3.46875,3.5,0.2661620080471039,899200
0.0,3.515625,3.453125,3.5,0.2661620080471039,830400
0.0,3.5,3.359375,3.359375,0.2554681897163391,593600
0.0,3.390625,3.265625,3.3828125,0.257250428199768,724800
0.0,3.40625,3.28125,3.40625,0.2590328752994537,454400
0.0,3.4140625,3.3828125,3.390625,0.2578445374965668,652800
0.0,3.484375,3.375,3.484375,0.264973908662796,288000
0.0,3.4921875,3.375,3.453125,0.2625974118709564,1323200
0.0,3.4296875,3.328125,3.359375,0.2554681897163391,425600
0.0,3.359375,3.2578125,3.28125,0.2495268434286117,241600
0.0,3.2421875,3.15625,3.21875,0.2447738796472549,656000
0.0,3.296875,3.171875,3.21875,0.2447738796472549,332800
0.0,3.265625,3.21875,3.234375,0.2459623366594314,328000
0.0,3.40625,3.265625,3.359375,0.2554681897163391,484800
0.0,3.4296875,3.375,3.40625,0.2590328752994537,462400
0.0,3.4453125,3.40625,3.4296875,0.2608150541782379,1908800
0.0,3.453125,3.375,3.375,0.256656289100647,1342400
0.0,3.3984375,3.34375,3.375,0.256656289100647,249600
0.0,3.40625,3.3515625,3.390625,0.2578445374965668,200000
0.0,3.421875,3.34375,3.40625,0.2590328752994537,1100800
0.0,3.4609375,3.390625,3.421875,0.2602209746837616,1614400
0.0,3.421875,3.359375,3.375,0.256656289100647,667200
0.0,3.375,3.3125,3.3671875,0.2560621798038482,299200
0.0,3.40625,3.375,3.40625,0.2590328752994537,784000
0.0,3.4140625,3.390625,3.40625,0.2590328752994537,768000
0.0,3.40625,3.390625,3.390625,0.2578445374965668,532800
0.0,3.390625,3.328125,3.34375,0.2542797923088074,1260800
0.0,3.3984375,3.34375,3.375,0.256656289100647,881600
0.0,3.421875,3.34375,3.390625,0.2578445374965668,2440000
0.0,3.421875,3.375,3.375,0.256656289100647,846400
0.0,3.40625,3.375,3.3984375,0.2584385871887207,1120000
0.0,3.3984375,3.34375,3.3984375,0.2584385871887207,1406400
0.0,3.5625,3.4140625,3.5625,0.2709149420261383,2683200
0.0,3.6015625,3.53125,3.5390625,0.2691326439380646,2368000
0.0,3.625,3.578125,3.6171875,0.275073766708374,1920000
0.0,3.703125,3.625,3.6875,0.28042072057724,1411200
0.0,3.75,3.6953125,3.7421875,0.2845795154571533,1604800
0.0,3.765625,3.71875,3.71875,0.2827971577644348,1451200
0.0,3.734375,3.671875,3.703125,0.2816088795661926,840000
0.0,3.734375,3.703125,3.71875,0.2827971577644348,425600
0.0,3.734375,3.65625,3.65625,0.2780442833900451,1718400
0.0,3.6875,3.640625,3.671875,0.2792325317859649,366400
0.0,3.7265625,3.6875,3.6875,0.28042072057724,595200
0.0,3.6953125,3.671875,3.6953125,0.2810148298740387,548800
0.0,3.734375,3.671875,3.7265625,0.2833913564682007,542400
0.0,3.7265625,3.6953125,3.7265625,0.2833913564682007,740800
0.0,3.7578125,3.734375,3.75,0.2851735353469848,1308800
0.0,3.828125,3.75,3.8125,0.2899266481399536,859200
0.0,4.0,3.8125,3.984375,0.302996963262558,1619200
0.0,3.9765625,3.875,3.90625,0.2970556914806366,937600
0.0,3.96875,3.90625,3.9375,0.2994323372840881,1076800
0.0,3.9609375,3.921875,3.921875,0.2982441782951355,940800
0.0,3.9296875,3.875,3.890625,0.2958676815032959,536000
0.0,3.8984375,3.859375,3.875,0.2946796119213104,564800
0.0,3.8984375,3.859375,3.890625,0.2958676815032959,416000
0.0,3.890625,3.859375,3.859375,0.2934911847114563,576000
0.0,3.8671875,3.7890625,3.8203125,0.2905206978321075,403200
0.0,3.875,3.8359375,3.84375,0.2923029661178589,547200
0.0,3.875,3.84375,3.859375,0.2934911847114563,168000
0.0,3.875,3.84375,3.859375,0.2934911847114563,947200
3.84375,3.859375,3.8125,3.84375,0.2923029661178589,960000
3.859375,3.859375,3.828125,3.84375,0.2923029661178589,464000
3.84375,3.84375,3.75,3.765625,0.286361813545227,219200
3.765625,3.796875,3.75,3.765625,0.286361813545227,387200
3.796875,3.828125,3.78125,3.828125,0.291114866733551,313600
3.84375,3.90625,3.84375,3.90625,0.2970556914806366,401600
3.9375,3.953125,3.9140625,3.9375,0.2994323372840881,316800
3.953125,3.9609375,3.9140625,3.9140625,0.2976499795913696,286400
3.9140625,3.9296875,3.888671875,3.9296875,0.2988383173942566,337600
3.9296875,3.9765625,3.8984375,3.9765625,0.3024027943611145,494400
3.9765625,3.9921875,3.96875,3.984375,0.302996963262558,198400
3.984375,4.015625,3.953125,3.953125,0.3006206154823303,465600
3.9609375,4.0,3.9375,3.953125,0.3006206154823303,182400
3.953125,4.0,3.90625,3.96875,0.3018087744712829,468800
3.9921875,4.015625,3.96875,4.0,0.304185152053833,272000
4.046875,4.09375,4.0,4.0234375,0.305967628955841,387200
4.03125,4.046875,4.015625,4.0390625,0.3071558475494385,571200
4.0625,4.0859375,4.0390625,4.0859375,0.3107205629348755,619200
4.0859375,4.1171875,4.046875,4.0546875,0.3083440065383911,670400
4.0234375,4.0390625,4.0,4.0390625,0.3071558475494385,428800
4.0078125,4.03125,3.9765625,3.9921875,0.3063887357711792,451200
3.96875,4.0078125,3.921875,3.9375,0.3021915853023529,740800
3.953125,4.078125,3.953125,4.046875,0.3105859160423279,803200
4.015625,4.0625,4.0,4.0546875,0.3111853897571563,553600
4.0703125,4.0703125,4.03125,4.03125,0.3093869388103485,492800
4.0390625,4.046875,4.0,4.0234375,0.308787077665329,252800
4.0234375,4.03125,3.96875,3.9765625,0.3051893711090088,396800
3.9921875,3.9921875,3.9609375,3.984375,0.3057890236377716,225600
3.96875,4.0,3.9375,4.0,0.3069882690906524,356800
4.0,4.015625,3.9765625,4.015625,0.3081874847412109,288000
4.0078125,4.140625,4.0078125,4.03125,0.3093869388103485,825600
3.984375,3.984375,3.921875,3.953125,0.3033908903598785,1417600
3.953125,4.0078125,3.9375,4.0078125,0.3075876533985138,321600
4.015625,4.0625,4.0078125,4.0390625,0.309986412525177,488000
4.046875,4.1171875,4.046875,4.1171875,0.3159822523593902,355200
4.09375,4.1171875,4.078125,4.109375,0.3153823912143707,580800
4.09375,4.25,4.078125,4.203125,0.3225777447223663,1388800
4.203125,4.203125,4.15625,4.1640625,0.3195796906948089,209600
4.1640625,4.171875,4.078125,4.09375,0.3141833543777466,601600
4.0625,4.1015625,4.0625,4.1015625,0.3147828876972198,488000
4.109375,4.1171875,3.984375,4.03125,0.3093869388103485,366400
4.015625,4.046875,3.96875,4.03125,0.3093869388103485,1065600
4.0625,4.078125,4.0546875,4.0703125,0.3123846352100372,5444800
4.0859375,4.0859375,4.03125,4.046875,0.3105859160423279,457600
4.046875,4.0546875,4.0078125,4.0078125,0.3075876533985138,444800
4.015625,4.0234375,3.984375,4.0078125,0.3075876533985138,427200
4.0234375,4.0625,4.015625,4.0625,0.311784952878952,1878400
4.0625,4.09375,4.0625,4.078125,0.3129841089248657,1062400
4.078125,4.109375,4.078125,4.109375,0.3153823912143707,272000
4.109375,4.125,4.1015625,4.1171875,0.3159822523593902,592000
4.125,4.15625,4.125,4.15625,0.3189799785614013,628800
4.15625,4.1640625,4.125,4.125,0.3165816068649292,1081600
4.109375,4.140625,4.1015625,4.1171875,0.3159822523593902,222400
4.1015625,4.1171875,4.046875,4.09375,0.3141833543777466,340800
4.0859375,4.109375,4.0625,4.09375,0.3141833543777466,435200
4.09375,4.109375,4.0703125,4.0703125,0.3123846352100372,145600
4.0703125,4.09375,4.0625,4.09375,0.3141833543777466,212800
4.0703125,4.0859375,4.0625,4.078125,0.3129841089248657,609600
4.09375,4.109375,4.046875,4.046875,0.3105859160423279,428800
4.0390625,4.0390625,3.9375,3.9375,0.3021915853023529,1552000
3.9375,3.984375,3.921875,3.96875,0.3045901358127594,534400
3.953125,4.0234375,3.953125,4.0234375,0.308787077665329,947200
4.0078125,4.0078125,3.96875,3.9921875,0.3063887357711792,155200
3.96875,3.9921875,3.9375,3.984375,0.3057890236377716,217600
3.984375,3.984375,3.921875,3.96875,0.3045901358127594,452800
3.96875,3.984375,3.9609375,3.984375,0.3057890236377716,152000
3.984375,3.9921875,3.9765625,3.9765625,0.3051893711090088,395200
3.9765625,3.9765625,3.90625,3.90625,0.2997931540012359,569600
3.890625,3.921875,3.859375,3.8671875,0.2967953681945801,291200
3.90625,3.9375,3.875,3.8984375,0.299193412065506,419200
3.90625,3.9140625,3.8125,3.828125,0.293797492980957,329600
3.8046875,3.828125,3.78125,3.8125,0.292598158121109,827200
3.8046875,3.8203125,3.796875,3.8125,0.292598158121109,497600
3.8125,3.875,3.8125,3.875,0.2973950803279876,633600
4.03125,4.03125,4.0,4.0,0.3069882690906524,681600
4.0703125,4.125,4.015625,4.125,0.3165816068649292,747200
4.1484375,4.2109375,4.1484375,4.2109375,0.3231772482395172,441600
4.21875,4.3125,4.21875,4.3125,0.330971747636795,814400
4.3125,4.3125,4.1875,4.1953125,0.3219779431819916,531200
4.203125,4.2109375,4.0625,4.0859375,0.3135837614536285,384000
4.03125,4.0546875,3.953125,3.9921875,0.3063887357711792,771200
3.90625,3.921875,3.8671875,3.9140625,0.3003928065299988,1000000
3.9375,3.953125,3.90625,3.9140625,0.3003928065299988,254400
3.890625,3.90625,3.84375,3.875,0.2973950803279876,656000
3.796875,3.84375,3.65625,3.7109375,0.2877742350101471,812800
3.6875,3.7578125,3.6875,3.734375,0.2895916700363159,881600
3.703125,3.828125,3.703125,3.734375,0.2895916700363159,472000
3.765625,3.765625,3.65625,3.671875,0.2847448289394378,2072000
3.640625,3.640625,3.5,3.53125,0.2738397717475891,1752000
3.53125,3.609375,3.5,3.5625,0.2762632071971893,923200
3.59375,3.65625,3.578125,3.6328125,0.2817157804965973,320000
3.6640625,3.765625,3.6640625,3.75,0.2908032536506653,304000
3.75,3.75,3.6328125,3.671875,0.2847448289394378,900800
3.65625,3.75,3.65625,3.734375,0.2895916700363159,868800
3.765625,3.796875,3.703125,3.7109375,0.2877742350101471,305600
3.71875,3.7421875,3.703125,3.734375,0.2895916700363159,187200
3.7421875,3.8125,3.734375,3.7421875,0.2901975214481354,1060800
3.7734375,3.8125,3.75,3.7890625,0.2938325405120849,288000
3.765625,3.765625,3.7265625,3.734375,0.2895916700363159,225600
3.71875,3.8125,3.7109375,3.8046875,0.2950442433357239,550400
3.8125,3.90625,3.8125,3.90625,0.3029201626777649,433600
3.921875,3.9609375,3.8828125,3.9453125,0.3059493005275726,259200
3.953125,4.0703125,3.953125,4.0,0.3101902306079864,1729600
3.96875,3.984375,3.96875,3.984375,0.3089784979820251,924800
3.96875,4.0625,3.96875,4.046875,0.3138252794742584,502400
4.0625,4.125,4.046875,4.125,0.3198836743831634,310400
4.171875,4.203125,4.15625,4.1875,0.3247303664684295,457600
4.21875,4.3359375,4.21875,4.3359375,0.3362413942813873,1228800
4.34375,4.375,4.3203125,4.359375,0.3380589485168457,628800
4.359375,4.375,4.28125,4.28125,0.3320004642009735,2353600
4.296875,4.375,4.25,4.2578125,0.3301829993724823,604800
4.265625,4.265625,4.125,4.1875,0.3247303664684295,381600
4.21875,4.21875,4.15625,4.203125,0.3259421586990356,126400
4.203125,4.21875,4.1875,4.21875,0.3271538317203522,356800
4.1875,4.1875,4.0625,4.09375,0.3174603581428528,581600
4.125,4.21875,4.09375,4.171875,0.3235187828540802,172800
4.140625,4.25,4.140625,4.25,0.3295770287513733,395200
4.25,4.46875,4.203125,4.46875,0.3465405702590942,999200
4.46875,4.46875,4.375,4.4375,0.3441174328327179,1304000
4.421875,4.546875,4.40625,4.546875,0.3525989949703216,452800
4.546875,4.578125,4.46875,4.484375,0.3477525115013122,338400
4.5,4.53125,4.4375,4.5,0.348964124917984,402400
4.46875,4.53125,4.453125,4.453125,0.3453289568424225,150400
4.4375,4.5,4.34375,4.34375,0.3368474543094635,211200
4.28125,4.28125,4.09375,4.109375,0.3186719417572021,1076800
4.109375,4.109375,4.015625,4.109375,0.3186719417572021,313600
4.078125,4.265625,4.078125,4.234375,0.3283654451370239,366400
4.1875,4.25,4.15625,4.25,0.3295770287513733,376000
4.25,4.390625,4.21875,4.34375,0.3368474543094635,899200
4.5625,4.625,4.5625,4.609375,0.3574458956718445,759200
4.5625,4.5625,4.515625,4.515625,0.3501757383346557,546400
4.5625,4.59375,4.5,4.5,0.348964124917984,453600
4.5,4.578125,4.46875,4.5625,0.3538107573986053,406400
4.625,4.65625,4.5625,4.578125,0.3550223410129547,558400
4.5625,4.609375,4.515625,4.546875,0.3525989949703216,148000
4.53125,4.53125,4.375,4.40625,0.3416939377784729,324000
4.515625,4.53125,4.375,4.40625,0.3416939377784729,324000
4.421875,4.5625,4.375,4.40625,0.3416939377784729,2216000
4.4375,4.53125,4.40625,4.46875,0.3465405702590942,604800
4.453125,4.5625,4.453125,4.53125,0.3513872623443603,1336000
4.53125,4.578125,4.5,4.5625,0.3538107573986053,313600
4.5625,4.59375,4.53125,4.546875,0.3525989949703216,668800
4.546875,4.578125,4.453125,4.515625,0.3501757383346557,351200
4.5,4.5625,4.484375,4.484375,0.3477525115013122,41600
4.484375,4.53125,4.484375,4.5,0.348964124917984,607200
4.53125,4.59375,4.515625,4.5625,0.3538107573986053,478400
4.578125,4.578125,4.4375,4.46875,0.3465405702590942,793600
4.46875,4.5625,4.453125,4.546875,0.3525989949703216,877600
4.53125,4.53125,4.453125,4.46875,0.3496162891387939,236000
4.375,4.453125,4.34375,4.34375,0.3398371040821075,336800
4.375,4.40625,4.25,4.28125,0.3349471688270569,408000
4.28125,4.28125,4.203125,4.203125,0.328834980726242,435200
4.234375,4.28125,4.203125,4.25,0.3325021266937256,176800
4.25,4.28125,4.1875,4.203125,0.328834980726242,495200
4.234375,4.3125,4.21875,4.3125,0.3373918831348419,1606400
4.328125,4.4375,4.328125,4.375,0.3422816097736358,616000
4.359375,4.390625,4.34375,4.34375,0.3398371040821075,920800
4.3125,4.40625,4.296875,4.40625,0.3447265923023224,454400
4.359375,4.421875,4.359375,4.390625,0.343504250049591,792000
4.359375,4.390625,4.328125,4.390625,0.343504250049591,531200
4.421875,4.4375,4.375,4.40625,0.3447265923023224,281600
4.4375,4.5625,4.40625,4.53125,0.3545061647891998,636800
4.546875,4.65625,4.546875,4.578125,0.3581735491752624,619200
4.625,4.625,4.59375,4.59375,0.3593959212303161,273600
4.59375,4.625,4.53125,4.5625,0.3569510579109192,770400
4.5625,4.5625,4.4375,4.4375,0.3471716344356537,1019200
4.5,4.546875,4.46875,4.515625,0.3532835245132446,844000
4.484375,4.546875,4.484375,4.5,0.3520611822605133,309600
4.46875,4.5625,4.46875,4.546875,0.3557285666465759,124800
4.515625,4.515625,4.4375,4.5,0.3520611822605133,754400
4.515625,4.515625,4.46875,4.46875,0.3496162891387939,184000
4.4375,4.5,4.4375,4.4375,0.3471716344356537,735200
4.46875,4.46875,4.40625,4.4375,0.3471716344356537,628800
4.40625,4.453125,4.40625,4.4375,0.3471716344356537,500000
4.390625,4.4375,4.390625,4.390625,0.343504250049591,120000
4.40625,4.453125,4.375,4.40625,0.3447265923023224,100000
4.375,4.40625,4.34375,4.34375,0.3398371040821075,1194400
4.25,4.3125,4.25,4.265625,0.3337245881557464,192800
4.265625,4.28125,4.1875,4.234375,0.3312799036502838,640800
4.203125,4.375,4.203125,4.296875,0.3361693918704986,1264000
4.28125,4.375,4.28125,4.296875,0.3361693918704986,405600
4.296875,4.3125,4.21875,4.3125,0.3373918831348419,792800
4.3125,4.34375,4.25,4.25,0.3325021266937256,403200
4.203125,4.25,4.203125,4.21875,0.3300573527812958,127200
4.234375,4.328125,4.234375,4.328125,0.3386144638061523,384800
4.3125,4.328125,4.25,4.296875,0.3361693918704986,1399200
4.3125,4.4375,4.296875,4.4375,0.3471716344356537,188800
4.46875,4.46875,4.34375,4.359375,0.3410592079162597,563200
4.328125,4.453125,4.328125,4.34375,0.3398371040821075,460000
4.328125,4.375,4.3125,4.34375,0.3398371040821075,1320800
4.375,4.609375,4.34375,4.5625,0.3569510579109192,1296000
4.59375,4.625,4.53125,4.59375,0.3593959212303161,693600
4.59375,4.75,4.578125,4.671875,0.3655079305171966,900800
4.703125,4.71875,4.578125,4.578125,0.3581735491752624,532000
4.5625,4.609375,4.5,4.578125,0.3581735491752624,502400
4.53125,4.5625,4.46875,4.5,0.3520611822605133,204000
4.4375,4.4375,4.3125,4.375,0.3422816097736358,294400
4.34375,4.421875,4.3125,4.421875,0.3459489345550537,391200
4.421875,4.4375,4.375,4.421875,0.3459489345550537,351200
4.421875,4.4375,4.34375,4.375,0.3422816097736358,552800
4.40625,4.46875,4.40625,4.4375,0.3471716344356537,529600
4.484375,4.484375,4.453125,4.453125,0.3483937978744507,268000
4.4375,4.4375,4.296875,4.296875,0.3361693918704986,2306400
4.296875,4.328125,4.21875,4.21875,0.3300573527812958,504800
4.25,4.296875,4.1875,4.21875,0.3300573527812958,560800
4.15625,4.1875,4.0625,4.15625,0.325167566537857,846400
4.125,4.1875,4.09375,4.125,0.3227227330207824,588800
4.078125,4.078125,3.96875,4.0,0.3129432201385498,643200
4.0,4.09375,3.96875,4.0,0.3129432201385498,533600
4.0,4.0625,3.8125,3.96875,0.3104984760284424,642400
3.921875,3.953125,3.859375,3.875,0.3031638264656067,502400
3.90625,4.0,3.90625,3.9375,0.308053582906723,748800
3.890625,3.96875,3.859375,3.9375,0.308053582906723,1136800
3.921875,3.953125,3.875,3.953125,0.3092759251594543,891200
4.03125,4.0625,3.921875,3.9375,0.308053582906723,405600
3.921875,3.96875,3.8125,3.84375,0.3007190823554992,765600
3.84375,3.875,3.71875,3.78125,0.2958292663097381,756000
3.796875,3.796875,3.71875,3.765625,0.2946068942546844,352000
3.78125,3.78125,3.625,3.75,0.2965342700481415,989600
3.75,3.75,3.59375,3.625,0.2866497635841369,422400
3.671875,3.6875,3.546875,3.625,0.2866497635841369,396800
3.625,3.640625,3.421875,3.46875,0.2742941677570343,993600
3.484375,3.5,3.4375,3.484375,0.2755298018455505,616000
3.484375,3.609375,3.4375,3.578125,0.2829430103302002,3064800
3.578125,3.578125,3.4375,3.546875,0.2804720401763916,684000
3.5625,3.625,3.53125,3.59375,0.2841785848140716,696000
3.671875,3.8125,3.640625,3.78125,0.2990054190158844,732800
3.78125,3.78125,3.625,3.65625,0.2891209125518799,644800
3.65625,3.796875,3.65625,3.734375,0.2952986657619476,277600
3.75,3.8125,3.6875,3.78125,0.2990054190158844,355200
3.75,3.8125,3.6875,3.78125,0.2990054190158844,1381600
3.8125,3.90625,3.71875,3.71875,0.2940630912780761,566400
3.75,3.8125,3.71875,3.765625,0.2977699339389801,408800
3.71875,3.8125,3.6875,3.75,0.2965342700481415,195200
3.734375,3.765625,3.65625,3.71875,0.2940630912780761,291200
3.75,3.75,3.65625,3.65625,0.2891209125518799,484000
3.671875,3.796875,3.671875,3.75,0.2965342700481415,291200
3.78125,3.875,3.78125,3.8125,0.301476389169693,470400
3.8125,3.859375,3.78125,3.8125,0.301476389169693,1076000
3.8125,3.859375,3.78125,3.8125,0.301476389169693,289600
3.90625,3.9375,3.890625,3.921875,0.3101253509521484,772000
3.890625,3.890625,3.8125,3.859375,0.3051832020282745,313600
3.828125,3.859375,3.796875,3.859375,0.3051832020282745,220800
3.828125,3.9375,3.828125,3.875,0.3064188063144684,252800
3.90625,3.90625,3.78125,3.828125,0.3027122020721435,209600
3.8125,3.84375,3.75,3.78125,0.2990054190158844,304800
3.78125,3.8125,3.75,3.796875,0.3002409040927887,122400
3.765625,3.8125,3.75,3.796875,0.3002409040927887,103200
3.796875,3.828125,3.78125,3.8125,0.301476389169693,248800
3.828125,3.828125,3.765625,3.796875,0.3002409040927887,260800
3.796875,3.8125,3.71875,3.796875,0.3002409040927887,354400
3.765625,3.796875,3.640625,3.640625,0.2878852784633636,433600
3.640625,3.71875,3.625,3.6875,0.2915919721126556,559200
3.65625,3.71875,3.65625,3.703125,0.2928276062011719,249600
3.703125,3.71875,3.65625,3.703125,0.2928276062011719,140800
3.671875,3.6875,3.640625,3.65625,0.2891209125518799,188000
3.6875,3.71875,3.5,3.515625,0.2780008912086487,860800
3.5,3.53125,3.453125,3.453125,0.273058533668518,480800
3.4375,3.453125,3.390625,3.4375,0.2718231081962585,2084800
3.484375,3.578125,3.484375,3.546875,0.2804720401763916,885600
3.578125,3.59375,3.4375,3.484375,0.2755298018455505,2246400
3.5,3.5,3.421875,3.46875,0.2742941677570343,888800
3.5,3.546875,3.484375,3.5,0.2767651975154876,1244800
3.515625,3.53125,3.5,3.515625,0.2780008912086487,1323200
3.53125,3.578125,3.5,3.5625,0.2817075550556183,290400
3.59375,3.609375,3.546875,3.5625,0.2817075550556183,242400
3.53125,3.609375,3.484375,3.5,0.2767651975154876,612800
3.53125,3.59375,3.515625,3.5625,0.2817075550556183,840800
3.59375,3.75,3.59375,3.703125,0.2928276062011719,1172800
3.734375,3.8125,3.703125,3.75,0.2965342700481415,596800
3.75,3.796875,3.703125,3.78125,0.2990054190158844,315200
3.796875,3.84375,3.78125,3.84375,0.3039476871490478,473600
3.859375,3.875,3.78125,3.859375,0.3051832020282745,392800
3.890625,3.890625,3.78125,3.828125,0.3027122020721435,353600
3.78125,3.796875,3.59375,3.65625,0.292559951543808,682400
3.71875,3.75,3.65625,3.75,0.3000616133213043,988000
3.75,3.828125,3.71875,3.8125,0.305062472820282,811200
3.8125,3.875,3.765625,3.78125,0.3025620579719543,752000
3.78125,3.78125,3.734375,3.78125,0.3025620579719543,208800
3.78125,3.78125,3.5625,3.703125,0.2963108122348785,575200
3.71875,3.71875,3.578125,3.625,0.2900594174861908,273600
3.625,3.640625,3.5625,3.578125,0.2863086760044098,702400
3.5625,3.5625,3.453125,3.5625,0.2850584089756012,1334400
3.53125,3.5625,3.46875,3.46875,0.2775568068027496,1342400
3.453125,3.5,3.40625,3.421875,0.2738060355186462,908800
3.40625,3.46875,3.390625,3.421875,0.2738060355186462,536800
3.421875,3.421875,3.28125,3.34375,0.2675548791885376,1011200
3.359375,3.421875,3.34375,3.390625,0.2713054120540619,583200
3.375,3.40625,3.296875,3.34375,0.2675548791885376,1495200
3.375,3.40625,3.28125,3.3125,0.2650541961193084,728000
3.34375,3.359375,3.1875,3.25,0.2600533664226532,768000
3.28125,3.28125,3.125,3.15625,0.2525516152381897,3813600
3.109375,3.171875,3.09375,3.125,0.2500511109828949,1299200
3.1875,3.234375,3.171875,3.203125,0.2563026845455169,1281600
3.21875,3.46875,3.21875,3.375,0.2700552642345428,2139200
3.40625,3.40625,3.28125,3.34375,0.2675548791885376,825600
3.40625,3.46875,3.40625,3.46875,0.2775568068027496,440000
3.46875,3.515625,3.46875,3.515625,0.2813077569007873,6442400
3.53125,3.546875,3.484375,3.53125,0.2825578153133392,396800
3.5625,3.5625,3.515625,3.53125,0.2825578153133392,323200
3.484375,3.5,3.453125,3.5,0.2800575494766235,284000
3.5,3.53125,3.484375,3.515625,0.2813077569007873,260800
3.5,3.515625,3.421875,3.453125,0.2763065099716186,861600
3.453125,3.484375,3.375,3.40625,0.2725557684898376,334400
3.375,3.484375,3.375,3.46875,0.2775568068027496,472000
3.5,3.5,3.4375,3.484375,0.2788070738315582,385600
3.453125,3.46875,3.375,3.46875,0.2775568068027496,2826400
3.46875,3.46875,3.421875,3.453125,0.2763065099716186,983200
3.453125,3.453125,3.390625,3.453125,0.2763065099716186,839200
3.484375,3.515625,3.453125,3.46875,0.2775568068027496,1771200
3.5,3.546875,3.46875,3.46875,0.2775568068027496,2021600
3.4375,3.46875,3.375,3.4375,0.2750565111637115,542400
3.4375,3.4375,3.390625,3.4375,0.2750565111637115,572000
3.4375,3.484375,3.4375,3.484375,0.2788070738315582,1027200
3.53125,3.53125,3.453125,3.484375,0.2788070738315582,511200
3.5,3.59375,3.46875,3.5625,0.2850584089756012,676000
3.5625,3.578125,3.5,3.546875,0.283808171749115,293600
3.53125,3.65625,3.484375,3.546875,0.283808171749115,331200
3.59375,3.625,3.578125,3.625,0.2900594174861908,264000
3.65625,3.78125,3.65625,3.71875,0.297560840845108,552800
3.71875,3.75,3.65625,3.6875,0.2950604557991028,184000
3.625,3.6875,3.5625,3.625,0.2900594174861908,382400
3.65625,3.6875,3.546875,3.609375,0.288809210062027,687200
3.609375,3.65625,3.546875,3.625,0.2900594174861908,436000
3.625,3.6875,3.609375,3.65625,0.292559951543808,928800
3.65625,3.65625,3.53125,3.625,0.2900594174861908,272800
3.625,3.625,3.46875,3.5,0.2800575494766235,314400
3.53125,3.625,3.53125,3.59375,0.2875587940216064,136000
3.59375,3.59375,3.53125,3.546875,0.283808171749115,532000
3.546875,3.59375,3.53125,3.546875,0.283808171749115,476800
3.546875,3.578125,3.515625,3.546875,0.283808171749115,224800
3.578125,3.578125,3.5,3.53125,0.2825578153133392,936800
3.5,3.625,3.46875,3.53125,0.2825578153133392,457600
3.546875,3.609375,3.46875,3.5,0.2800575494766235,628000
3.484375,3.53125,3.40625,3.453125,0.2763065099716186,531200
3.484375,3.734375,3.484375,3.625,0.2900594174861908,1785600
3.625,3.75,3.625,3.75,0.3000616133213043,1441600
3.875,3.9375,3.828125,3.875,0.3100637197494507,1789600
3.859375,3.9375,3.8125,3.9375,0.3187663853168487,2960800
3.90625,4.046875,3.890625,3.984375,0.3225610852241516,716000
3.984375,4.0,3.9375,3.9375,0.3187663853168487,592000
3.9375,4.125,3.875,4.109375,0.3326806128025055,1179200
4.09375,4.234375,4.09375,4.1875,0.3390052914619446,1677600
4.15625,4.1875,4.0625,4.078125,0.3301509916782379,1063200
4.15625,4.15625,4.09375,4.09375,0.3314160108566284,637600
4.03125,4.109375,3.96875,4.078125,0.3301509916782379,536000
4.046875,4.15625,4.046875,4.09375,0.3314160108566284,495200
4.125,4.15625,4.09375,4.109375,0.3326806128025055,474400
4.09375,4.1875,4.09375,4.1875,0.3390052914619446,893600
4.21875,4.28125,4.15625,4.234375,0.3428004384040832,700000
4.234375,4.234375,4.125,4.21875,0.3415354490280151,1062400
4.1875,4.21875,4.171875,4.1875,0.3390052914619446,199200
4.1875,4.3125,4.1875,4.296875,0.3478601574897766,376800
4.3125,4.3125,4.21875,4.28125,0.3465952575206756,188800
4.25,4.296875,4.21875,4.234375,0.3428004384040832,974400
4.25,4.28125,4.171875,4.1875,0.3390052914619446,725600
4.15625,4.203125,4.140625,4.15625,0.3364757299423218,276000
4.125,4.1875,4.09375,4.1875,0.3390052914619446,365600
4.15625,4.171875,4.140625,4.171875,0.3377405703067779,382400
4.140625,4.171875,4.078125,4.140625,0.3352105915546417,368000
4.171875,4.203125,4.171875,4.1875,0.3390052914619446,220000
4.234375,4.25,4.15625,4.1875,0.3390052914619446,332000
4.15625,4.21875,4.140625,4.1875,0.3390052914619446,212800
4.21875,4.28125,4.21875,4.25,0.3440651297569275,533600
4.21875,4.25,4.1875,4.21875,0.3415354490280151,748800
4.1875,4.34375,4.1875,4.34375,0.3516550958156585,1043200
4.359375,4.375,4.296875,4.34375,0.3516550958156585,648800
4.3125,4.40625,4.3125,4.40625,0.3567149043083191,676800
4.421875,4.484375,4.40625,4.484375,0.3630393445491791,744800
4.453125,4.515625,4.421875,4.4375,0.3592447340488434,767200
4.40625,4.484375,4.40625,4.46875,0.3617743849754333,536800
4.4375,4.484375,4.4375,4.4375,0.3592447340488434,721600
4.421875,4.484375,4.40625,4.46875,0.3617743849754333,444000
4.453125,4.453125,4.375,4.421875,0.3579796850681305,1692000
4.40625,4.46875,4.359375,4.359375,0.3529199063777923,603200
4.390625,4.40625,4.28125,4.375,0.3541849255561828,757600
4.265625,4.265625,4.15625,4.21875,0.3415354490280151,817600
4.1875,4.25,4.171875,4.21875,0.3415354490280151,296800
4.203125,4.28125,4.171875,4.171875,0.3377405703067779,294400
4.140625,4.1875,4.0,4.03125,0.3263561129570007,1790400
4.03125,4.09375,4.03125,4.09375,0.3314160108566284,644000
4.125,4.21875,4.125,4.171875,0.3377405703067779,310400
4.15625,4.171875,4.078125,4.109375,0.3326806128025055,121600
4.109375,4.15625,4.09375,4.140625,0.3352105915546417,1056000
4.140625,4.15625,4.03125,4.15625,0.3364757299423218,262400
4.140625,4.21875,4.140625,4.21875,0.3415354490280151,126400
4.1875,4.328125,4.1875,4.296875,0.3478601574897766,442400
4.3125,4.390625,4.28125,4.34375,0.3516550958156585,1718400
4.328125,4.34375,4.1875,4.21875,0.3415354490280151,244000
4.21875,4.28125,4.1875,4.25,0.3440651297569275,328800
4.21875,4.34375,4.21875,4.34375,0.3516550958156585,368000
4.34375,4.5625,4.34375,4.421875,0.3579796850681305,1361600
4.421875,4.421875,4.375,4.375,0.3541849255561828,663200
4.34375,4.375,4.3125,4.34375,0.3516550958156585,997600
4.328125,4.4375,4.328125,4.390625,0.3554496765136719,234400
4.375,4.390625,4.328125,4.34375,0.3516550958156585,1270400
4.3125,4.34375,4.234375,4.28125,0.3465952575206756,825600
4.265625,4.28125,4.25,4.25,0.3440651297569275,343200
4.25,4.359375,4.21875,4.328125,0.3503899872303009,420000
4.28125,4.3125,4.28125,4.296875,0.3478601574897766,791200
4.125,4.15625,4.09375,4.125,0.3339456915855407,859200
4.078125,4.171875,4.0625,4.140625,0.3389077484607696,1601600
4.125,4.203125,4.109375,4.203125,0.3440234959125519,407200
4.21875,4.296875,4.21875,4.296875,0.3516971170902252,916000
4.28125,4.296875,4.234375,4.28125,0.3504180908203125,539200
4.28125,4.296875,4.25,4.28125,0.3504180908203125,999200
4.296875,4.3125,4.234375,4.28125,0.3504180908203125,480000
4.265625,4.3125,4.265625,4.296875,0.3516971170902252,361600
4.265625,4.296875,4.234375,4.28125,0.3504180908203125,615200
4.265625,4.328125,4.25,4.3125,0.3529756665229797,357600
4.3125,4.3125,4.28125,4.3125,0.3529756665229797,764000
4.3125,4.359375,4.28125,4.328125,0.3542544841766357,492000
4.296875,4.375,4.28125,4.3125,0.3529756665229797,768000
4.265625,4.296875,4.21875,4.25,0.3478599786758423,313600
4.28125,4.28125,4.21875,4.25,0.3478599786758423,612800
4.234375,4.28125,4.21875,4.25,0.3478599786758423,168000
4.25,4.25,4.203125,4.234375,0.3465811908245086,520800
4.203125,4.234375,4.171875,4.203125,0.3440234959125519,790400
4.1875,4.1875,4.125,4.140625,0.3389077484607696,481600
4.109375,4.125,4.03125,4.078125,0.3337923884391784,733600
4.125,4.1875,4.078125,4.109375,0.3363499939441681,350400
4.078125,4.125,4.0625,4.078125,0.3337923884391784,244800
4.078125,4.1875,4.078125,4.15625,0.3401866853237152,598400
4.125,4.125,4.0625,4.09375,0.3350712358951568,287200
4.09375,4.171875,4.078125,4.140625,0.3389077484607696,384800
4.09375,4.140625,4.09375,4.125,0.3376288712024688,342400
4.125,4.171875,4.125,4.140625,0.3389077484607696,331200
4.125,4.1875,4.125,4.140625,0.3389077484607696,416000
4.125,4.15625,4.125,4.140625,0.3389077484607696,872800
4.125,4.15625,4.09375,4.109375,0.3363499939441681,420000
4.078125,4.125,4.0625,4.09375,0.3350712358951568,412000
4.125,4.125,4.0,4.0625,0.3325132429599762,1825600
4.09375,4.171875,4.09375,4.171875,0.3414658010005951,884000
4.15625,4.21875,4.15625,4.15625,0.3401866853237152,755200
4.203125,4.21875,4.125,4.125,0.3376288712024688,779200
4.09375,4.15625,3.9375,4.046875,0.3312344849109649,1142400
4.078125,4.125,4.046875,4.109375,0.3363499939441681,260800
4.109375,4.109375,4.03125,4.046875,0.3312344849109649,103200
4.078125,4.09375,4.046875,4.0625,0.3325132429599762,1440800
4.03125,4.0625,4.0,4.046875,0.3312344849109649,319200
4.078125,4.171875,4.046875,4.109375,0.3363499939441681,479200
4.109375,4.203125,4.109375,4.15625,0.3401866853237152,910400
4.15625,4.171875,4.125,4.15625,0.3401866853237152,364800
4.140625,4.171875,4.125,4.125,0.3376288712024688,332800
4.171875,4.21875,4.140625,4.171875,0.3414658010005951,1047200
4.171875,4.203125,4.15625,4.1875,0.3427445590496063,320800
4.21875,4.21875,4.1875,4.21875,0.3453024327754974,337600
4.21875,4.296875,4.203125,4.296875,0.3516971170902252,1797600
4.296875,4.3125,4.234375,4.28125,0.3504180908203125,1031200
4.25,4.328125,4.25,4.328125,0.3542544841766357,2920800
4.328125,4.4375,4.296875,4.40625,0.3606491088867187,5229600
4.5,4.5625,4.40625,4.515625,0.3696012794971466,13840000
4.515625,4.515625,4.484375,4.5,0.3683223724365234,1127200
4.53125,4.578125,4.515625,4.546875,0.3721593022346496,2415200
4.53125,4.71875,4.53125,4.71875,0.3862271606922149,1831200
4.734375,4.859375,4.71875,4.734375,0.3875058889389038,2558400
4.75,4.796875,4.71875,4.765625,0.3900635540485382,644800
4.734375,4.796875,4.71875,4.734375,0.3875058889389038,940800
4.71875,4.921875,4.71875,4.921875,0.4028527438640594,966400
4.875,5.0,4.859375,5.0,0.4092471897602081,801600
4.921875,4.96875,4.875,4.96875,0.4066892564296722,579200
4.984375,4.984375,4.890625,4.96875,0.4066892564296722,1524000
4.875,4.90625,4.78125,4.84375,0.3964579105377197,620800
4.8125,4.84375,4.78125,4.78125,0.3913426101207733,423200
4.765625,4.828125,4.765625,4.8125,0.3939005434513092,1716000
4.8125,4.828125,4.75,4.78125,0.3913426101207733,636800
4.765625,4.8125,4.65625,4.703125,0.3849478960037231,1779200
4.703125,4.78125,4.6875,4.78125,0.3913426101207733,568000
4.78125,4.859375,4.75,4.859375,0.3977371454238891,959200
4.8125,4.8125,4.78125,4.796875,0.3967035412788391,571200
4.765625,4.796875,4.71875,4.734375,0.3915345668792724,586400
4.71875,4.75,4.6875,4.734375,0.3915345668792724,432000
4.734375,4.734375,4.65625,4.6875,0.387658029794693,1396800
4.65625,4.65625,4.625,4.625,0.3824892044067383,1879200
4.6875,4.6875,4.609375,4.609375,0.3811971843242645,924800
4.609375,4.625,4.578125,4.59375,0.3799048960208893,1586400
4.59375,4.59375,4.546875,4.578125,0.3786125481128692,1268000
4.5625,4.609375,4.546875,4.59375,0.3799048960208893,1045600
4.609375,4.609375,4.609375,4.609375,0.3811971843242645,356800
4.609375,4.65625,4.59375,4.640625,0.3837814033031463,665600
4.625,4.6875,4.625,4.65625,0.385073721408844,451200
4.6875,4.71875,4.671875,4.71875,0.3902422785758972,763200
4.75,4.859375,4.71875,4.828125,0.3992874920368194,774400
4.796875,4.8125,4.734375,4.765625,0.3941190242767334,907200
4.796875,4.84375,4.71875,4.75,0.3928268551826477,940000
4.75,4.859375,4.75,4.8125,0.3979955911636352,1347200
4.78125,4.890625,4.765625,4.828125,0.3992874920368194,678400
4.8125,4.90625,4.8125,4.90625,0.405748575925827,493600
4.875,4.953125,4.859375,4.875,0.4031641483306885,1016000
4.84375,4.875,4.6875,4.75,0.3928268551826477,862400
4.71875,4.796875,4.6875,4.703125,0.3889501690864563,280800
4.6875,4.8125,4.65625,4.796875,0.3967035412788391,569600
4.765625,4.8125,4.625,4.625,0.3824892044067383,582400
4.625,4.703125,4.625,4.671875,0.3863657414913177,464000
4.640625,4.796875,4.640625,4.75,0.3928268551826477,392800
4.71875,4.71875,4.65625,4.6875,0.387658029794693,212800
4.65625,4.703125,4.625,4.671875,0.3863657414913177,334400
4.6875,4.734375,4.65625,4.703125,0.3889501690864563,413600
4.703125,4.734375,4.65625,4.703125,0.3889501690864563,211200
4.71875,4.78125,4.6875,4.71875,0.3902422785758972,472000
4.734375,4.75,4.703125,4.734375,0.3915345668792724,250400
4.734375,4.734375,4.640625,4.671875,0.3863657414913177,610400
4.703125,4.703125,4.625,4.65625,0.385073721408844,410400
4.671875,4.703125,4.65625,4.6875,0.387658029794693,460800
4.703125,4.71875,4.671875,4.703125,0.3889501690864563,448000
4.671875,4.75,4.671875,4.75,0.3928268551826477,388000
4.703125,4.75,4.703125,4.734375,0.3915345668792724,434400
4.734375,4.734375,4.703125,4.734375,0.3915345668792724,388000
4.6875,4.71875,4.6875,4.71875,0.3902422785758972,454400
4.78125,4.78125,4.65625,4.6875,0.387658029794693,894400
4.703125,4.71875,4.671875,4.6875,0.387658029794693,643200
4.65625,4.6875,4.625,4.65625,0.385073721408844,1068800
4.625,4.6875,4.625,4.6875,0.387658029794693,189600
4.640625,4.671875,4.578125,4.625,0.3824892044067383,768800
4.5625,4.578125,4.421875,4.484375,0.3708594739437103,2160800
4.40625,4.4375,4.390625,4.421875,0.3656905591487884,640800
4.4375,4.453125,4.390625,4.4375,0.3669829368591308,615200
4.40625,4.40625,4.34375,4.40625,0.3643985092639923,780000
4.34375,4.453125,4.34375,4.453125,0.3682751953601837,564000
4.390625,4.453125,4.375,4.390625,0.363106369972229,4750400
4.4375,4.4375,4.34375,4.4375,0.3669829368591308,649600
4.40625,4.4375,4.390625,4.421875,0.3656905591487884,842400
4.421875,4.421875,4.375,4.390625,0.363106369972229,504000
4.359375,4.375,4.34375,4.359375,0.3605218231678009,612800
4.359375,4.40625,4.34375,4.34375,0.3592298328876495,2526400
4.328125,4.359375,4.3125,4.359375,0.3605218231678009,977600
4.359375,4.40625,4.34375,4.390625,0.363106369972229,497600
4.359375,4.375,4.3125,4.3125,0.3607536852359772,297600
4.34375,4.375,4.3125,4.375,0.3659818172454834,423200
4.375,4.375,4.328125,4.34375,0.3633677661418915,1213600
4.359375,4.40625,4.359375,4.40625,0.3685960471630096,549600
4.421875,4.53125,4.40625,4.515625,0.3777458071708679,1000000
4.546875,4.546875,4.46875,4.5,0.3764386475086212,528000
4.53125,4.625,4.53125,4.59375,0.3842810988426208,852000
4.609375,4.6875,4.59375,4.640625,0.3882021605968475,1112000
4.671875,4.75,4.65625,4.75,0.397352010011673,509600
4.78125,4.859375,4.78125,4.84375,0.4051943123340606,1585600
4.890625,4.96875,4.875,4.9375,0.4130366444587707,1227200
4.9375,4.96875,4.90625,4.953125,0.4143436849117279,665600
4.9375,4.96875,4.921875,4.9375,0.4130366444587707,1565600
4.921875,4.953125,4.875,4.953125,0.4143436849117279,925600
4.96875,4.984375,4.890625,4.921875,0.4117294549942016,918400
4.90625,4.921875,4.828125,4.859375,0.406501442193985,714400
4.84375,4.90625,4.828125,4.875,0.4078081548213959,803200
4.890625,4.90625,4.84375,4.875,0.4078081548213959,470400
4.875,4.90625,4.84375,4.890625,0.4091154336929321,618400
4.859375,4.890625,4.796875,4.8125,0.4025802314281463,446400
4.78125,4.96875,4.78125,4.921875,0.4117294549942016,4740800
4.953125,5.109375,4.9375,5.09375,0.4261074364185333,2116000
5.09375,5.109375,5.03125,5.109375,0.42741459608078,1146400
5.09375,5.1875,5.09375,5.15625,0.4313357770442962,784000
5.15625,5.15625,5.125,5.125,0.428721934556961,580800
5.140625,5.140625,5.09375,5.109375,0.42741459608078,719200
5.109375,5.125,5.078125,5.09375,0.4261074364185333,701600
5.125,5.15625,5.078125,5.09375,0.4261074364185333,1678400
5.140625,5.234375,5.125,5.21875,0.4365640878677368,594400
5.203125,5.25,5.1875,5.25,0.4391780793666839,363200
5.21875,5.28125,5.171875,5.1875,0.4339499771595001,696800
5.203125,5.28125,5.15625,5.25,0.4391780793666839,1571200
5.21875,5.28125,5.21875,5.28125,0.4417926073074341,241600
5.25,5.296875,5.25,5.296875,0.4430994987487793,808000
5.265625,5.28125,5.21875,5.265625,0.4404853582382202,1336800
5.25,5.359375,5.1875,5.203125,0.4352570474147796,1568000
5.21875,5.28125,5.1875,5.25,0.4391780793666839,676000
5.25,5.296875,5.21875,5.21875,0.4365640878677368,648000
5.25,5.265625,5.203125,5.234375,0.4378712177276611,646400
5.234375,5.296875,5.203125,5.28125,0.4417926073074341,485600
5.265625,5.3125,5.25,5.3125,0.4444064199924469,669600
5.3125,5.4375,5.28125,5.40625,0.4522490203380584,1062400
5.40625,5.421875,5.390625,5.421875,0.453556090593338,444000
5.390625,5.421875,5.390625,5.421875,0.453556090593338,688000
5.421875,5.421875,5.328125,5.390625,0.450942188501358,791200
5.375,5.40625,5.34375,5.375,0.4496349096298218,2248800
5.328125,5.390625,5.328125,5.390625,0.450942188501358,1067200
5.421875,5.453125,5.390625,5.453125,0.4561702609062195,568800
5.46875,5.5,5.4375,5.453125,0.4561702609062195,708800
5.453125,5.53125,5.421875,5.5,0.4600917100906372,656800
5.625,5.671875,5.59375,5.671875,0.4744695425033569,2698400
5.671875,5.796875,5.625,5.78125,0.4836189150810241,1896000
5.75,5.90625,5.734375,5.875,0.4914613962173462,1309600
5.84375,5.859375,5.71875,5.765625,0.4823120832443237,429600
5.796875,5.8125,5.59375,5.625,0.4705481827259063,941600
5.65625,5.65625,5.5,5.53125,0.4627056121826172,410400
5.53125,5.5625,5.5,5.5625,0.4653200209140777,535200
5.546875,5.734375,5.546875,5.71875,0.478390634059906,1002400
5.734375,5.734375,5.59375,5.640625,0.4718552827835083,928000
5.625,5.65625,5.59375,5.640625,0.4718552827835083,361600
5.640625,5.6875,5.625,5.671875,0.4744695425033569,216800
5.671875,5.6875,5.625,5.65625,0.4731625318527221,372800
5.671875,5.734375,5.640625,5.6875,0.4757765233516693,945600
5.6875,5.6875,5.640625,5.65625,0.4731625318527221,348800
5.5,5.65625,5.46875,5.5,0.4641948044300079,2713600
5.5,5.53125,5.40625,5.5,0.4641948044300079,1204000
5.53125,5.6875,5.5,5.6875,0.4800195395946502,1320000
5.65625,5.703125,5.609375,5.640625,0.4760636389255523,725600
5.609375,5.65625,5.609375,5.625,0.474744975566864,644000
5.640625,5.6875,5.625,5.640625,0.4760636389255523,587200
5.625,5.6875,5.625,5.65625,0.4773820042610168,302400
5.671875,5.671875,5.53125,5.53125,0.466832160949707,822400
5.5,5.53125,5.375,5.421875,0.4576011002063751,678400
5.421875,5.484375,5.421875,5.453125,0.4602387845516205,441600
5.484375,5.578125,5.453125,5.546875,0.468151181936264,385600
5.53125,5.625,5.453125,5.5625,0.469469666481018,1249600
5.59375,5.59375,5.484375,5.5,0.4641948044300079,1018400
5.46875,5.5625,5.4375,5.484375,0.4628762900829315,458400
5.484375,5.546875,5.484375,5.5,0.4641948044300079,340800
5.484375,5.5625,5.484375,5.5625,0.469469666481018,152800
5.5625,5.578125,5.46875,5.5,0.4641948044300079,448800
5.5,5.546875,5.484375,5.53125,0.466832160949707,355200
5.53125,5.546875,5.484375,5.53125,0.466832160949707,737600
5.546875,5.6875,5.515625,5.6875,0.4800195395946502,384000
5.6875,5.734375,5.625,5.671875,0.4787010550498962,371200
5.6875,5.6875,5.5625,5.578125,0.4707886576652527,484000
5.5625,5.59375,5.484375,5.546875,0.468151181936264,406400
5.5625,5.5625,5.5,5.5,0.4641948044300079,142400
5.46875,5.515625,5.46875,5.5,0.4641948044300079,272800
5.5,5.5,5.375,5.390625,0.4549641013145447,1280000
5.375,5.4375,5.34375,5.375,0.4536452293395996,597600
5.375,5.4375,5.375,5.421875,0.4576011002063751,556800
5.453125,5.53125,5.40625,5.515625,0.4655137360095978,253600
5.515625,5.625,5.515625,5.609375,0.4734260141849518,879200
5.578125,5.640625,5.484375,5.484375,0.4628762900829315,427200
5.515625,5.515625,5.453125,5.484375,0.4628762900829315,568000
5.453125,5.53125,5.421875,5.46875,0.4615575969219208,589600
5.53125,5.59375,5.53125,5.59375,0.4721075296401977,484000
5.59375,5.65625,5.578125,5.609375,0.4734260141849518,599200
5.546875,5.609375,5.546875,5.609375,0.4734260141849518,301600
5.625,5.625,5.53125,5.59375,0.4721075296401977,360000
5.59375,5.625,5.578125,5.625,0.474744975566864,349600
5.609375,5.703125,5.59375,5.703125,0.4813383519649505,324000
5.71875,5.796875,5.59375,5.59375,0.4721075296401977,1103200
5.578125,5.6875,5.578125,5.609375,0.4734260141849518,260800
5.609375,5.609375,5.546875,5.578125,0.4707886576652527,794400
5.5625,5.5625,5.390625,5.40625,0.4562823176383972,848800
5.4375,5.484375,5.40625,5.453125,0.4602387845516205,253600
5.421875,5.46875,5.40625,5.4375,0.4589199125766754,2060000
5.421875,5.453125,5.421875,5.4375,0.4589199125766754,260000
5.40625,5.46875,5.40625,5.46875,0.4615575969219208,1391200
5.46875,5.53125,5.453125,5.53125,0.466832160949707,680000
5.5625,5.59375,5.53125,5.59375,0.4721075296401977,476800
5.578125,5.671875,5.578125,5.671875,0.4787010550498962,1112000
5.640625,5.703125,5.640625,5.6875,0.4800195395946502,757600
5.671875,5.703125,5.5625,5.578125,0.4707886576652527,757600
5.59375,5.734375,5.5625,5.65625,0.4773820042610168,1012800
5.671875,5.71875,5.65625,5.703125,0.4813383519649505,692000
5.703125,5.703125,5.59375,5.671875,0.4787010550498962,376800
5.65625,5.671875,5.59375,5.625,0.474744975566864,386400
5.59375,5.609375,5.515625,5.609375,0.4734260141849518,182400
5.609375,5.625,5.546875,5.609375,0.4734260141849518,180000
5.609375,5.65625,5.609375,5.65625,0.4773820042610168,212800
5.625,5.671875,5.625,5.671875,0.4787010550498962,640000
5.65625,5.6875,5.65625,5.6875,0.4800195395946502,524000
5.65625,5.890625,5.65625,5.890625,0.49716317653656,965600
5.90625,6.0,5.859375,5.90625,0.4984822273254394,1089600
6.015625,6.015625,5.8125,6.015625,0.5124856233596802,884000
6.015625,6.15625,6.015625,6.046875,0.5151477456092834,1521600
6.046875,6.15625,6.03125,6.15625,0.5244659781455994,840000
6.125,6.125,6.046875,6.09375,0.5191412568092346,337600
6.09375,6.15625,6.03125,6.15625,0.5244659781455994,656800
6.125,6.25,6.125,6.234375,0.531121551990509,1264800
6.25,6.25,6.140625,6.140625,0.5231345891952515,449600
6.125,6.234375,6.078125,6.171875,0.52579665184021,614400
6.15625,6.3125,6.15625,6.203125,0.5284590721130371,1276800
6.21875,6.296875,6.140625,6.296875,0.536446213722229,1349600
6.375,6.421875,6.34375,6.421875,0.547095000743866,854400
6.375,6.40625,6.34375,6.375,0.5431016087532043,290400
6.375,6.40625,6.34375,6.375,0.5431016087532043,668800
6.34375,6.375,6.203125,6.21875,0.5297903418540955,374400
6.3125,6.3125,6.1875,6.265625,0.5337837338447571,424800
6.234375,6.25,6.0625,6.15625,0.5244659781455994,1265600
6.1875,6.3125,6.1875,6.28125,0.5351144671440125,1169600
6.25,6.3125,6.203125,6.234375,0.531121551990509,924800
6.203125,6.21875,6.125,6.203125,0.5284590721130371,472800
6.21875,6.25,6.171875,6.1875,0.5271279215812683,650400
6.0625,6.1875,6.03125,6.171875,0.52579665184021,2110400
6.15625,6.1875,5.9375,5.9375,0.5058298110961914,1506400
5.90625,5.90625,5.5625,5.859375,0.4991743266582489,1225600
5.828125,6.078125,5.828125,5.96875,0.5084922909736633,827200
5.9375,6.03125,5.9375,5.953125,0.5071609616279602,409600
5.9375,6.0,5.9375,5.984375,0.5098234415054321,549600
5.984375,6.0625,5.90625,5.984375,0.5098234415054321,1932000
5.984375,6.234375,5.984375,6.203125,0.5284590721130371,625600
6.1875,6.359375,6.140625,6.34375,0.5404393672943115,1236000
6.359375,6.359375,6.1875,6.359375,0.5417704582214355,1179200
6.328125,6.375,6.28125,6.34375,0.5404393672943115,987200
6.296875,6.359375,6.28125,6.296875,0.536446213722229,683200
6.296875,6.375,6.25,6.375,0.5431016087532043,795200
6.3125,6.375,6.28125,6.359375,0.5417704582214355,602400
6.3125,6.3125,6.09375,6.140625,0.5231345891952515,727200
6.125,6.140625,6.09375,6.109375,0.5204723477363586,173600
6.078125,6.1875,6.078125,6.1875,0.5271279215812683,525600
6.1875,6.265625,6.15625,6.265625,0.5337837338447571,418400
6.28125,6.375,6.25,6.375,0.5431016087532043,786400
6.375,6.375,6.296875,6.328125,0.5391084551811218,540800
6.3125,6.34375,6.25,6.296875,0.536446213722229,650400
6.296875,6.296875,6.140625,6.1875,0.5271279215812683,427200
6.21875,6.234375,6.03125,6.125,0.5218034982681274,592000
6.15625,6.171875,5.6875,5.71875,0.4871940314769745,1376800
5.625,5.828125,5.625,5.828125,0.4965119361877441,1164800
5.8125,5.84375,5.765625,5.78125,0.492518663406372,749600
5.78125,5.84375,5.765625,5.78125,0.492518663406372,688800
5.78125,5.796875,5.71875,5.765625,0.4911876022815704,1518400
5.75,5.90625,5.71875,5.90625,0.5031676888465881,1378400
5.921875,6.03125,5.875,5.984375,0.5098234415054321,352000
5.953125,6.0625,5.9375,6.015625,0.5124856233596802,518400
5.984375,5.984375,5.890625,5.96875,0.5084922909736633,744800
5.953125,6.0,5.875,5.921875,0.5044987201690674,740000
5.96875,6.0,5.8125,5.8125,0.4951808452606201,1319200
5.78125,5.875,5.765625,5.828125,0.4965119361877441,598400
5.8125,5.953125,5.8125,5.953125,0.5071609616279602,909600
5.90625,5.984375,5.890625,5.96875,0.5084922909736633,435200
6.0,6.0,5.9375,5.953125,0.5071609616279602,480800
5.984375,6.125,5.953125,6.03125,0.513816773891449,848000
6.015625,6.109375,6.0,6.0625,0.5164786577224731,881600
6.109375,6.171875,6.078125,6.140625,0.5231345891952515,1335200
6.109375,6.21875,6.109375,6.203125,0.5284590721130371,628000
6.25,6.28125,6.21875,6.234375,0.531121551990509,1524000
6.25,6.328125,6.234375,6.3125,0.5377770662307739,1951200
6.34375,6.453125,6.328125,6.421875,0.547095000743866,1742400
6.421875,6.53125,6.359375,6.53125,0.5564127564430237,972000
6.703125,6.734375,6.546875,6.703125,0.5710551738739014,1145600
6.875,6.890625,6.640625,6.875,0.6268444657325745,1729600
6.84375,6.90625,6.75,6.75,0.6154471635818481,1461600
6.71875,6.875,6.6875,6.875,0.6268444657325745,1157600
6.90625,6.96875,6.734375,6.96875,0.6353922486305237,1000000
7.0,7.15625,6.96875,7.125,0.6496387124061584,1034400
7.15625,7.34375,7.125,7.171875,0.6539129018783569,1052000
7.171875,7.234375,7.125,7.15625,0.6524880528450012,2320800
7.15625,7.3125,7.140625,7.265625,0.6624609231948853,1183200
7.21875,7.3125,7.15625,7.296875,0.6653099060058594,668800
7.3125,7.34375,7.15625,7.21875,0.6581867933273315,1738400
7.25,7.296875,7.21875,7.28125,0.663885235786438,732000
7.3125,7.375,7.25,7.328125,0.6681589484214783,463200
7.5,7.6875,7.46875,7.6875,0.700925886631012,1215200
7.6875,7.6875,7.421875,7.453125,0.6795564293861389,721600
7.453125,7.6875,7.34375,7.53125,0.686680018901825,1326400
7.5625,7.5625,7.46875,7.5625,0.6895289421081543,562400
7.59375,8.046875,7.5625,7.984375,0.727994441986084,1779200
7.984375,7.984375,7.84375,7.90625,0.7208712100982666,1203200
7.90625,7.96875,7.71875,7.71875,0.7037752866744995,428000
7.703125,7.921875,7.703125,7.890625,0.7194464206695557,742400
7.875,8.15625,7.875,8.03125,0.732268214225769,964800
8.0625,8.125,7.921875,8.09375,0.7379667162895203,636000
8.0625,8.125,7.53125,8.0625,0.735117495059967,1812800
7.96875,8.0625,7.78125,7.984375,0.727994441986084,766400
7.96875,7.984375,7.8125,7.953125,0.7251452207565308,484800
7.921875,7.96875,7.8125,7.90625,0.7208712100982666,692000
7.90625,8.0625,7.875,8.0625,0.735117495059967,1108000
8.125,8.21875,8.0625,8.15625,0.7436655759811401,1337600
8.21875,8.265625,8.125,8.203125,0.7479396462440491,1558400
8.1875,8.1875,7.9375,8.109375,0.7393914461135864,685600
8.109375,8.109375,8.015625,8.046875,0.7336930632591248,904000
8.09375,8.109375,8.0,8.015625,0.7308436036109924,678400
8.078125,8.109375,8.03125,8.078125,0.7365421652793884,582400
8.109375,8.109375,8.015625,8.015625,0.7308436036109924,619200
8.03125,8.046875,7.96875,8.046875,0.7336930632591248,1211200
8.046875,8.078125,7.9375,7.96875,0.7265697717666626,392800
7.9375,8.09375,7.59375,7.59375,0.6923782229423523,819200
7.59375,7.65625,7.546875,7.65625,0.6980767846107483,560800
7.671875,7.875,7.640625,7.75,0.7066247463226318,503200
7.8125,7.890625,7.609375,7.625,0.6952278017997742,917600
7.65625,7.65625,7.375,7.59375,0.6923782229423523,1039200
7.578125,7.65625,7.546875,7.625,0.6952278017997742,458400
7.65625,7.671875,7.53125,7.625,0.6952278017997742,730400
7.65625,7.734375,7.625,7.640625,0.6966519355773926,269600
7.71875,8.28125,7.71875,8.25,0.752213716506958,1074400
8.1875,8.234375,7.9375,8.0,0.7294189929962158,801600
8.03125,8.046875,7.640625,8.03125,0.732268214225769,1028000
8.09375,8.109375,8.0,8.078125,0.7365421652793884,858400
8.21875,8.28125,8.125,8.25,0.752213716506958,1219200
8.25,8.28125,8.1875,8.25,0.752213716506958,945600
8.1875,8.265625,8.1875,8.203125,0.7479396462440491,652800
8.203125,8.234375,8.15625,8.234375,0.750788688659668,555200
8.234375,8.265625,8.15625,8.234375,0.750788688659668,561600
8.203125,8.203125,8.015625,8.09375,0.7379667162895203,452000
8.171875,8.28125,8.09375,8.125,0.7408164143562317,1053600
8.09375,8.25,8.03125,8.234375,0.750788688659668,796000
8.203125,8.265625,8.125,8.203125,0.7479396462440491,712800
8.171875,8.25,8.125,8.21875,0.7493643164634705,431200
8.09375,8.1875,8.09375,8.09375,0.7837398052215576,180800
8.140625,8.25,8.09375,8.234375,0.797356903553009,590400
8.28125,8.28125,8.03125,8.046875,0.7792003750801086,355200
8.015625,8.015625,7.921875,7.921875,0.767096757888794,398400
7.9375,7.953125,7.796875,7.796875,0.7549925446510315,1021600
7.796875,7.796875,7.65625,7.703125,0.7459146976470947,651200
7.71875,7.734375,7.625,7.625,0.7383490800857544,809600
7.640625,7.640625,7.4375,7.46875,0.7232192158699036,608000
7.4375,7.5,7.3125,7.5,0.7262455821037292,1061600
7.53125,7.625,7.515625,7.609375,0.7368362545967102,737600
7.609375,7.75,7.5625,7.734375,0.7489401698112488,799200
7.75,7.796875,7.640625,7.75,0.7504534721374512,1017600
7.75,7.90625,7.734375,7.90625,0.7655835151672363,465600
7.921875,8.03125,7.890625,8.015625,0.7761744856834412,533600
7.984375,8.015625,7.953125,7.984375,0.7731484174728394,221600
7.984375,8.0,7.875,7.953125,0.7701227068901062,617600
7.921875,7.9375,7.8125,7.9375,0.7686099410057068,1089600
7.875,7.90625,7.828125,7.890625,0.7640703916549683,1028000
7.90625,7.953125,7.875,7.953125,0.7701227068901062,1261600
7.921875,7.953125,7.90625,7.953125,0.7701227068901062,451200
7.984375,8.109375,7.96875,8.09375,0.7837398052215576,777600
8.09375,8.109375,8.015625,8.109375,0.7852529287338257,804800
8.078125,8.09375,7.890625,7.921875,0.767096757888794,664800
7.890625,7.890625,7.578125,7.625,0.7383490800857544,507200
7.609375,7.71875,7.59375,7.65625,0.7413758039474487,776800
7.671875,7.734375,7.625,7.71875,0.7474274635314941,693600
7.6875,7.859375,7.640625,7.859375,0.7610443234443665,357600
7.84375,8.03125,7.84375,8.03125,0.7776877284049988,600000
8.0,8.0625,7.9375,8.0625,0.7807138562202454,724000
8.0625,8.0625,7.859375,7.96875,0.7716357111930847,438400
7.96875,7.96875,7.828125,7.921875,0.767096757888794,331200
7.921875,7.9375,7.6875,7.78125,0.7534792423248291,492000
7.78125,7.875,7.765625,7.84375,0.7595314383506775,617600
7.875,7.9375,7.78125,7.90625,0.7655835151672363,881600
7.9375,8.109375,7.890625,8.0625,0.7807138562202454,989600
8.109375,8.171875,8.078125,8.171875,0.7913046479225159,1040000
8.34375,8.6875,8.21875,8.6875,0.841234028339386,1207200
8.65625,8.65625,8.53125,8.59375,0.8321557641029358,572000
8.5625,8.640625,8.5,8.515625,0.8245909810066223,396000
8.5,8.546875,8.46875,8.53125,0.8261041045188904,1366400
8.53125,8.53125,8.4375,8.46875,0.8200517892837524,1432800
8.484375,8.484375,8.3125,8.421875,0.8155129551887512,1009600
8.453125,8.453125,8.15625,8.15625,0.7897917032241821,603200
8.0,8.0,7.765625,7.9375,0.7686099410057068,1141600
7.9375,7.96875,7.828125,7.921875,0.767096757888794,952800
7.921875,7.921875,7.703125,7.84375,0.7595314383506775,696000
7.875,7.875,7.78125,7.875,0.7625575065612793,1339200
7.84375,7.84375,7.71875,7.765625,0.7519663572311401,626400
7.71875,7.75,7.5,7.53125,0.7292712926864624,1178400
7.625,7.671875,7.515625,7.515625,0.7277579307556152,808800
7.5,7.671875,7.5,7.640625,0.7398627996444702,1128000
7.75,7.90625,7.65625,7.78125,0.7534792423248291,808800
7.75,7.75,7.65625,7.71875,0.7474274635314941,498400
7.6875,7.875,7.6875,7.875,0.7625575065612793,740000
7.859375,7.984375,7.8125,7.96875,0.7716357111930847,1444000
7.96875,8.0625,7.9375,8.0625,0.7807138562202454,552000
8.078125,8.09375,7.96875,8.09375,0.7837398052215576,448000
8.078125,8.09375,7.8125,7.8125,0.75650554895401,580000
7.828125,7.828125,7.765625,7.78125,0.7534792423248291,768800
7.78125,7.796875,7.65625,7.703125,0.7459146976470947,514400
7.734375,7.734375,7.65625,7.703125,0.7459146976470947,704800
7.6875,7.6875,7.59375,7.59375,0.7353235483169556,1102400
7.5625,7.859375,7.5,7.859375,0.7610443234443665,620800
7.71875,7.875,7.71875,7.71875,0.7960447669029236,760800
7.625,7.640625,7.53125,7.5625,0.7799301743507385,532800
7.59375,7.625,7.484375,7.5,0.7734848260879517,768800
7.546875,7.546875,7.40625,7.53125,0.7767074108123779,616800
7.5625,7.859375,7.53125,7.859375,0.8105472922325134,1471200
7.828125,7.984375,7.78125,7.921875,0.8169930577278137,952000
7.921875,8.25,7.921875,8.1875,0.844387412071228,2211200
8.234375,8.28125,8.203125,8.234375,0.8492222428321838,1181600
8.3125,8.3125,8.15625,8.265625,0.8524442315101624,1148000
8.25,8.25,8.125,8.21875,0.8476101160049438,1219200
8.1875,8.203125,8.171875,8.171875,0.8427760004997253,1656000
8.203125,8.359375,8.1875,8.359375,0.8621128797531128,1321600
8.375,8.5,8.34375,8.4375,0.8701699376106262,1935200
8.46875,8.46875,8.34375,8.375,0.8637245297431946,779200
8.34375,8.359375,8.28125,8.296875,0.8556677103042603,586400
8.296875,8.5,8.296875,8.46875,0.8733929395675659,1156800
8.453125,8.53125,8.4375,8.53125,0.8798388838768005,981600
8.53125,8.671875,8.5,8.640625,0.8911188244819641,1001600
8.59375,8.796875,8.59375,8.71875,0.8991760611534119,3828000
8.71875,8.71875,8.453125,8.46875,0.8733929395675659,1000000
8.46875,8.625,8.375,8.625,0.889506995677948,1630400
8.65625,9.0,8.640625,8.890625,0.9169015884399414,2874400
8.875,8.921875,8.625,8.671875,0.8943424820899963,1639200
8.59375,8.78125,8.515625,8.75,0.902398943901062,1348000
8.78125,8.859375,8.625,8.65625,0.8927300572395325,1900800
8.65625,8.8125,8.5625,8.8125,0.908844232559204,1460000
8.8125,8.8125,8.4375,8.46875,0.8733929395675659,2055200
8.484375,8.5,8.1875,8.34375,0.8605020046234131,2328800
8.46875,8.484375,8.390625,8.4375,0.8701699376106262,1860800
8.4375,8.484375,8.375,8.453125,0.8717820048332214,1300800
8.453125,8.484375,8.34375,8.34375,0.8605020046234131,1265600
8.34375,8.40625,8.3125,8.359375,0.8621128797531128,861600
8.359375,8.421875,8.28125,8.421875,0.8685587644577026,1069600
8.390625,8.4375,8.34375,8.421875,0.8685587644577026,415200
8.4375,8.546875,8.421875,8.546875,0.8814505338668823,1432800
8.5,8.5625,8.390625,8.5625,0.8830615282058716,820800
8.5625,8.5625,8.3125,8.375,0.8637245297431946,1181600
8.34375,8.359375,8.25,8.3125,0.8572787642478943,456000
8.28125,8.28125,7.9375,8.0,0.8250504732131958,1515200
7.96875,8.0625,7.96875,8.015625,0.8266615271568298,930400
8.046875,8.1875,8.015625,8.125,0.8379417657852173,1239200
8.171875,8.203125,8.109375,8.109375,0.8363305330276489,648800
8.078125,8.1875,8.015625,8.078125,0.8331074118614197,416000
8.046875,8.15625,8.03125,8.0625,0.83149653673172,403200
8.078125,8.140625,8.046875,8.078125,0.8331074118614197,541600
8.109375,8.21875,8.078125,8.1875,0.844387412071228,1105600
8.21875,8.28125,8.21875,8.21875,0.8476101160049438,1460800
8.203125,8.203125,8.140625,8.15625,0.8411645889282227,465600
8.140625,8.171875,8.0625,8.09375,0.8347193598747253,108000
8.125,8.25,8.125,8.21875,0.8476101160049438,656000
8.46875,8.484375,8.203125,8.46875,0.8733929395675659,475200
8.5,8.59375,8.46875,8.5625,0.8830615282058716,1509600
8.59375,8.609375,8.5625,8.609375,0.8878962397575378,647200
8.578125,8.578125,8.5,8.5,0.8766160011291504,1486400
8.5,8.5,8.375,8.453125,0.8717820048332214,1067200
8.484375,8.578125,8.453125,8.5625,0.8830615282058716,874400
8.59375,8.671875,8.5625,8.625,0.889506995677948,798400
8.65625,8.6875,8.578125,8.578125,0.8846731781959534,660000
8.59375,8.609375,8.515625,8.5625,0.8830615282058716,717600
8.59375,8.65625,8.5,8.609375,0.8878962397575378,1252000
8.625,8.734375,8.625,8.734375,0.900787353515625,1340800
8.75,8.796875,8.65625,8.703125,0.8975647687911987,2224000
8.734375,8.734375,8.546875,8.640625,0.8911188244819641,956000
8.65625,8.75,8.625,8.75,0.902398943901062,1692800
8.671875,8.703125,8.640625,8.671875,0.9462509155273438,1818400
8.671875,8.84375,8.65625,8.796875,0.9598900079727172,1663200
8.765625,8.84375,8.71875,8.8125,0.9615944027900696,863200
8.78125,8.890625,8.734375,8.84375,0.9650046825408936,1085600
8.8125,8.8125,8.6875,8.734375,0.9530700445175172,815200
8.703125,8.796875,8.65625,8.78125,0.9581850171089172,1544000
8.78125,8.796875,8.625,8.71875,0.9513651728630066,776000
8.734375,8.765625,8.6875,8.6875,0.9479552507400512,1657600
8.734375,8.9375,8.71875,8.890625,0.9701197743415833,1803200
8.828125,8.859375,8.75,8.75,0.9547755122184752,1086400
8.78125,8.796875,8.578125,8.578125,0.9360207319259644,1169600
8.59375,8.75,8.578125,8.75,0.9547755122184752,869600
8.78125,8.796875,8.65625,8.734375,0.9530700445175172,1061600
8.734375,8.828125,8.703125,8.78125,0.9581850171089172,2249600
8.78125,8.90625,8.75,8.859375,0.9667101502418518,1480000
8.875,9.125,8.875,9.0625,0.9888738989830016,1718400
9.0625,9.25,9.046875,9.203125,1.004218816757202,897600
9.203125,9.28125,9.171875,9.28125,1.0127439498901367,1002400
9.28125,9.28125,9.046875,9.234375,1.0076287984848022,995200
9.3125,9.453125,9.234375,9.40625,1.0263831615447998,1941600
9.40625,9.625,9.40625,9.5625,1.043432593345642,2039200
9.59375,9.703125,9.46875,9.46875,1.033202886581421,2061600
9.40625,9.578125,9.21875,9.359375,1.021268606185913,1144800
9.34375,9.4375,9.21875,9.359375,1.021268606185913,944800
9.4375,9.53125,9.21875,9.21875,1.005923867225647,876000
9.21875,9.375,9.21875,9.34375,1.0195634365081787,1076000
9.34375,9.5,9.21875,9.25,1.009333252906799,1772800
9.25,9.28125,9.109375,9.1875,1.0025138854980469,619200
9.15625,9.15625,9.0,9.078125,0.9905787706375122,850400
9.1875,9.21875,9.0625,9.21875,1.005923867225647,1204800
9.25,9.28125,9.1875,9.28125,1.0127439498901367,716800
9.25,9.40625,9.09375,9.15625,0.9991039037704468,1108000
9.1875,9.375,9.125,9.375,1.0229737758636477,1775200
9.25,9.28125,9.09375,9.21875,1.005923867225647,1244800
9.21875,9.21875,9.125,9.203125,1.004218816757202,1052800
9.203125,9.203125,9.15625,9.1875,1.0025138854980469,1071200
9.203125,9.21875,9.171875,9.171875,1.0008089542388916,221600
9.171875,9.21875,9.125,9.15625,0.9991039037704468,745600
9.140625,9.15625,9.03125,9.03125,0.9854642748832704,908000
9.046875,9.15625,9.03125,9.109375,0.9939887523651124,940800
9.078125,9.3125,9.046875,9.3125,1.0161532163619995,824000
9.328125,9.4375,9.328125,9.421875,1.0280882120132446,1616800
9.453125,9.625,9.390625,9.421875,1.0280882120132446,2948800
9.34375,9.5625,9.34375,9.5625,1.043432593345642,1420000
9.625,9.78125,9.5625,9.75,1.0638920068740845,1454400
9.78125,9.921875,9.71875,9.8125,1.0707118511199951,910400
9.78125,10.1875,9.75,10.15625,1.1082208156585691,1405600
10.15625,10.15625,10.015625,10.03125,1.0945813655853271,1028000
10.0,10.09375,9.890625,10.078125,1.099696159362793,1489600
10.09375,10.1875,10.0625,10.125,1.1048113107681274,1710400
10.15625,10.3125,10.125,10.15625,1.1082208156585691,1640000
10.03125,10.15625,9.9375,10.125,1.1048113107681274,1085600
10.15625,10.46875,10.125,10.40625,1.135500431060791,1477600
10.40625,10.40625,9.9375,10.0,1.0911715030670166,1445600
10.0625,10.359375,10.0625,10.3125,1.1252704858779907,920800
10.375,10.875,10.15625,10.40625,1.135500431060791,2648800
10.34375,10.34375,10.1875,10.25,1.11845064163208,965600
10.28125,10.5625,10.28125,10.421875,1.137204885482788,932800
10.4375,10.6875,10.40625,10.59375,1.1559596061706543,985600
10.71875,10.75,10.65625,10.734375,1.1713049411773682,980000
10.765625,10.90625,10.5,10.875,1.1866495609283447,831200
10.921875,11.125,10.84375,11.0625,1.2071082592010498,1322400
11.078125,11.15625,10.9375,11.03125,1.2036988735198977,1951200
11.078125,11.078125,10.9375,11.0625,1.2071082592010498,899200
11.0625,11.09375,10.875,10.90625,1.190058350563049,1313600
10.953125,11.03125,10.890625,10.96875,1.1968785524368286,667200
10.96875,10.96875,10.78125,10.875,1.1866495609283447,776000
10.5,10.609375,10.3125,10.5,1.2055937051773071,1310400
10.5,10.71875,10.421875,10.71875,1.2307103872299194,499200
10.71875,10.84375,10.5,10.5625,1.2127710580825806,948800
10.625,10.75,10.5625,10.734375,1.232505202293396,797600
10.5,10.6875,10.46875,10.6875,1.2271223068237305,1221600
11.046875,11.0625,10.796875,10.90625,1.252238631248474,1248800
10.9375,10.9375,10.890625,10.90625,1.252238631248474,987200
10.875,10.90625,10.78125,10.8125,1.241474747657776,502400
10.75,10.8125,10.5,10.640625,1.2217401266098022,1544000
10.578125,10.609375,10.484375,10.578125,1.2145637273788452,1500000
10.546875,10.578125,10.46875,10.5,1.2055937051773071,1120800
10.5,10.59375,10.46875,10.578125,1.2145637273788452,695200
10.546875,10.5625,10.46875,10.53125,1.2091821432113647,3137600
10.5,10.59375,10.46875,10.59375,1.216357946395874,556800
10.5625,10.625,10.5,10.625,1.2199466228485107,527200
10.65625,10.703125,10.5625,10.59375,1.216357946395874,1098400
10.59375,10.640625,10.53125,10.5625,1.2127710580825806,1231200
10.609375,10.6875,10.59375,10.640625,1.2217401266098022,1818400
10.71875,10.984375,10.625,10.875,1.2486510276794434,809600
10.9375,10.96875,10.828125,10.90625,1.252238631248474,589600
11.03125,11.09375,10.890625,10.921875,1.2540332078933716,720800
10.984375,11.0,10.90625,10.984375,1.261209487915039,492000
10.875,11.25,10.75,10.875,1.2486510276794434,522400
10.90625,10.90625,10.625,10.71875,1.2307103872299194,509200
10.65625,11.25,10.625,11.15625,1.2809443473815918,621200
11.21875,11.3125,11.125,11.25,1.2917078733444214,578000
11.25,11.5,11.1875,11.46875,1.3168251514434814,682800
11.5,11.875,11.375,11.875,1.3634698390960691,1208800
11.875,12.3125,11.8125,12.25,1.4065263271331787,1698000
12.25,12.4375,11.90625,12.0,1.3778222799301147,993600
12.1875,12.25,11.875,12.0625,1.3849982023239136,1198400
12.125,12.40625,12.0625,12.09375,1.388586401939392,455600
11.8125,11.875,11.3125,11.53125,1.3240002393722534,654800
10.75,11.25,10.6875,11.09375,1.2737683057785034,1630000
11.125,11.1875,10.90625,11.03125,1.2665919065475464,819200
11.09375,11.5625,11.0,11.3125,1.2988837957382202,998800
11.375,11.53125,11.34375,11.5,1.3204126358032229,786000
11.3125,11.75,11.09375,11.75,1.349117398262024,619200
11.8125,12.125,11.8125,12.03125,1.3814098834991455,697600
12.03125,12.21875,11.84375,11.84375,1.359882354736328,558400
11.78125,11.8125,11.125,11.71875,1.345529079437256,715200
11.65625,11.71875,11.28125,11.28125,1.2952959537506104,429600
11.1875,11.40625,11.0,11.15625,1.2809443473815918,586000
11.21875,11.21875,10.25,10.5,1.2055937051773071,832800
10.3125,10.5625,10.15625,10.21875,1.1733009815216064,1661600
10.5,10.5625,10.1875,10.375,1.1912418603897097,821200
10.5625,10.8125,10.53125,10.75,1.2342990636825562,781200
10.8125,10.875,10.4375,10.5,1.2055937051773071,558000
10.40625,10.6875,10.28125,10.6875,1.2271223068237305,612400
10.6875,10.6875,10.125,10.25,1.1768895387649536,946800
10.25,10.375,9.90625,10.0625,1.1553610563278198,1186000
10.0,10.03125,9.625,9.71875,1.1158926486968994,792800
9.65625,9.9375,9.3125,9.875,1.1338328123092651,2089200
9.9375,10.09375,9.875,9.875,1.1338328123092651,789200
10.0,10.25,9.9375,10.09375,1.1589486598968506,1150400
10.25,10.40625,10.125,10.40625,1.1948295831680298,748000
10.46875,10.6875,10.34375,10.59375,1.216357946395874,1080400
10.53125,10.625,10.40625,10.40625,1.1948295831680298,913200
10.46875,10.59375,10.34375,10.46875,1.2340242862701416,1291600
10.5,10.71875,10.46875,10.6875,1.259809494018555,786800
10.71875,10.78125,10.59375,10.625,1.2524423599243164,926000
10.71875,10.75,10.5,10.6875,1.259809494018555,798000
10.625,10.78125,10.59375,10.65625,1.2561265230178833,1415200
10.375,10.625,10.34375,10.53125,1.2413915395736694,698000
10.5625,10.5625,10.21875,10.4375,1.230339765548706,905600
10.5,10.5,10.21875,10.3125,1.21560537815094,675200
10.375,10.4375,9.96875,10.0,1.1787688732147217,817600
9.9375,10.0,9.59375,9.84375,1.1603513956069946,852000
9.8125,9.8125,9.375,9.46875,1.1161470413208008,1039200
9.5,9.5625,9.125,9.3125,1.0977288484573364,1605200
9.4375,9.5,9.1875,9.1875,1.0829941034317017,875200
9.3125,9.46875,9.25,9.3125,1.0977288484573364,618800
9.5,9.71875,9.46875,9.71875,1.1456165313720703,633200
9.65625,9.875,9.5625,9.75,1.1492992639541626,672000
9.8125,9.84375,9.5,9.65625,1.1382488012313845,850400
9.6875,9.71875,9.625,9.71875,1.1456165313720703,1093200
9.71875,9.90625,9.59375,9.8125,1.1566665172576904,1023600
9.75,10.0,9.65625,9.96875,1.1750848293304443,614000
9.90625,10.0,9.65625,9.90625,1.167718768119812,1229600
9.90625,10.21875,9.90625,10.1875,1.2008709907531738,1046400
10.21875,10.3125,10.0625,10.125,1.1935038566589355,822800
10.1875,10.21875,9.96875,10.0625,1.1861366033554075,561600
9.96875,10.21875,9.9375,10.125,1.1935038566589355,799600
10.25,10.3125,10.09375,10.21875,1.2045544385910034,1170800
10.21875,10.28125,10.09375,10.28125,1.2119221687316897,830800
10.28125,10.3125,10.15625,10.3125,1.21560537815094,1228000
10.34375,10.4375,10.28125,10.4375,1.230339765548706,708000
10.4375,10.96875,10.375,10.96875,1.2929624319076538,2381600
11.0,11.625,10.9375,11.53125,1.3592684268951416,2495200
11.5625,12.25,11.53125,12.0,1.414523720741272,2391600
12.125,12.4375,11.5625,11.875,1.399788498878479,1922800
12.125,12.40625,12.0,12.40625,1.462410807609558,1819600
12.375,13.375,12.34375,12.5,1.4734617471694946,3246800
12.34375,12.6875,12.3125,12.5,1.4734617471694946,1883200
12.4375,12.53125,12.0,12.0625,1.4218904972076416,1936400
12.0,12.3125,11.9375,12.125,1.4292572736740112,1087200
12.25,12.5,12.0625,12.0625,1.4218904972076416,1318000
12.03125,12.15625,11.6875,11.75,1.385053634643555,1732400
11.625,11.75,11.375,11.5,1.3555843830108645,1768000
11.53125,11.6875,11.40625,11.40625,1.344533085823059,1036800
11.5,12.0,11.40625,11.5625,1.3629523515701294,1564400
11.71875,12.09375,11.6875,12.0625,1.4218904972076416,1748800
12.0,12.4375,11.9375,12.34375,1.4550431966781616,1861600
12.375,12.8125,12.125,12.34375,1.4550431966781616,2982800
12.375,12.5625,12.1875,12.34375,1.4550431966781616,1258400
12.28125,12.3125,12.125,12.28125,1.4476759433746338,1294800
12.28125,12.3125,12.09375,12.125,1.4292572736740112,843600
12.09375,12.1875,11.9375,12.0625,1.4218904972076416,825200
12.25,12.25,12.0,12.125,1.4292572736740112,1436400
12.15625,12.1875,12.03125,12.09375,1.4255744218826294,881200
11.9375,12.125,11.8125,11.9375,1.407155990600586,1275600
11.875,11.90625,11.53125,11.5625,1.3629523515701294,1709600
11.78125,12.125,11.5625,12.09375,1.4255744218826294,1846000
12.09375,12.09375,11.8125,11.875,1.399788498878479,645200
11.96875,12.0,11.71875,11.78125,1.3887379169464111,808800
11.8125,12.0,11.6875,11.8125,1.3924212455749512,467600
11.84375,11.875,11.59375,11.78125,1.3887379169464111,806000
11.84375,11.90625,11.78125,11.84375,1.39610493183136,1122400
11.875,12.25,11.875,12.09375,1.4255744218826294,1800000
12.125,12.75,12.0625,12.40625,1.462410807609558,1598400
12.25,12.59375,12.1875,12.28125,1.4476759433746338,1555600
12.03125,12.28125,11.90625,12.03125,1.4500868320465088,1030800
12.09375,12.46875,12.0625,12.0625,1.4538524150848389,1618400
12.03125,12.21875,11.90625,12.21875,1.4726850986480713,1084000
12.15625,12.34375,12.125,12.15625,1.4651525020599363,1004400
12.21875,12.3125,12.125,12.28125,1.4802181720733645,518000
12.34375,12.4375,12.125,12.15625,1.4651525020599363,1504000
12.21875,12.4375,12.125,12.25,1.4764516353607178,1993200
12.34375,12.59375,12.125,12.4375,1.499050259590149,3560800
12.46875,12.53125,12.25,12.3125,1.4839857816696167,1664800
12.25,12.375,12.15625,12.21875,1.4726850986480713,1200800
12.15625,12.21875,11.75,11.90625,1.4350202083587646,765200
11.8125,11.96875,11.625,11.96875,1.4425538778305054,1087600
11.9375,12.125,11.78125,11.9375,1.438786864280701,1305600
12.0,12.1875,11.875,12.09375,1.457619309425354,1856000
12.09375,12.125,11.34375,11.9375,1.438786864280701,974800
11.9375,12.09375,11.8125,11.875,1.4312536716461182,2133600
12.0,12.09375,11.90625,12.0,1.44632089138031,1095200
12.03125,12.21875,11.9375,12.125,1.4613858461380005,1114000
12.0625,12.21875,11.8125,11.8125,1.4237215518951416,794400
11.9375,12.15625,11.8125,12.15625,1.4651525020599363,1075200
12.0,12.5625,11.9375,12.34375,1.4877512454986572,2578800
12.375,12.40625,12.03125,12.1875,1.4689185619354248,1850400
12.125,12.1875,11.53125,11.71875,1.4124221801757812,1555600
11.84375,12.0,11.375,11.5,1.386056900024414,1059200
11.40625,11.5625,11.125,11.3125,1.3634570837020874,1324400
11.28125,11.34375,10.9375,11.0625,1.3333263397216797,1769200
11.15625,11.21875,11.0625,11.09375,1.3370929956436155,1961200
11.375,11.5,11.09375,11.3125,1.3634570837020874,1462400
11.3125,11.4375,11.25,11.40625,1.3747568130493164,1116800
11.40625,11.40625,11.15625,11.1875,1.348391890525818,1028400
11.3125,11.3125,11.0625,11.125,1.3408591747283936,2021200
11.21875,11.46875,10.78125,11.46875,1.382290244102478,2184400
11.71875,11.78125,11.375,11.53125,1.38982355594635,2810400
11.5625,11.625,11.1875,11.28125,1.359691858291626,1180000
11.375,11.5,11.0625,11.40625,1.3747568130493164,896000
11.40625,11.5625,11.34375,11.40625,1.3747568130493164,1238400
11.375,11.53125,11.3125,11.375,1.370990753173828,866000
11.3125,11.40625,11.28125,11.375,1.370990753173828,568000
11.4375,11.5,11.375,11.4375,1.378523826599121,1240400
11.4375,11.5,11.375,11.5,1.386056900024414,652000
11.5,11.5625,11.21875,11.3125,1.3634570837020874,1635200
11.375,11.6875,11.34375,11.65625,1.4048888683319092,3055600
11.65625,11.6875,11.625,11.625,1.4011223316192627,604000
11.59375,11.71875,11.5625,11.71875,1.4124221801757812,522400
11.65625,11.6875,11.53125,11.5625,1.393589735031128,1191200
11.59375,11.59375,11.34375,11.375,1.370990753173828,974800
11.4375,11.4375,11.125,11.21875,1.3521586656570437,1002800
11.1875,11.3125,11.0,11.0625,1.3333263397216797,1302800
11.0,11.0,10.8125,10.9375,1.3182600736618042,1233600
11.0625,11.25,10.96875,11.1875,1.348391890525818,1670800
11.0,11.125,10.8125,10.9375,1.3182600736618042,730000
10.84375,10.90625,10.5,10.5625,1.2730633020401,1977200
10.53125,10.625,9.9375,10.0,1.2052665948867798,2075200
9.75,9.75,7.75,7.9375,0.9566806554794312,3679200
7.8125,8.375,7.25,7.75,0.9340815544128418,7401600
8.3125,9.0,8.28125,8.875,1.069674372673035,5020800
8.625,8.71875,7.9375,8.25,0.9943451881408693,3896400
8.03125,8.3125,7.875,8.0,0.9642130732536316,2158400
7.625,7.75,7.25,7.4375,0.8964172601699829,1717600
7.5,7.6875,7.125,7.375,0.8888841271400452,1009200
6.875,7.25,6.875,7.03125,0.8474534749984741,1024400
7.21875,7.5,7.125,7.34375,0.8851171731948853,1152000
7.65625,7.8125,7.5,7.65625,0.9227826595306396,2007600
7.8125,8.3125,7.8125,8.3125,1.0018779039382937,752000
8.25,8.5,8.0,8.5,1.024476170539856,1576400
8.40625,8.625,8.21875,8.25,1.0307234525680542,846400
8.15625,8.59375,8.125,8.5,1.0619573593139648,1138400
8.6875,8.75,8.25,8.25,1.0307234525680542,485200
8.25,8.25,7.65625,7.65625,0.956543266773224,1444000
7.375,7.5,7.25,7.25,0.9057875275611876,1305200
7.25,7.875,7.25,7.65625,0.956543266773224,1202800
7.8125,8.25,7.8125,8.0625,1.0072981119155884,968800
8.21875,8.3125,7.75,7.75,0.9682557582855223,639600
7.9375,8.25,7.9375,7.96875,0.9955850839614868,1096000
8.03125,8.0625,7.78125,8.0625,1.0072981119155884,653600
8.0,8.4375,8.0,8.34375,1.042436122894287,1274800
8.3125,8.625,8.25,8.3125,1.038532018661499,1178000
8.25,8.78125,8.1875,8.75,1.0931910276412964,968800
8.75,8.78125,8.625,8.78125,1.0970957279205322,1166400
8.71875,8.9375,8.71875,8.875,1.1088087558746338,2592400
8.875,8.875,8.4375,8.625,1.0775741338729858,1238800
8.5625,8.59375,8.375,8.40625,1.050244927406311,481600
8.125,8.375,7.8125,8.0,0.9994891881942748,1590400
8.0,8.3125,7.9375,8.1875,1.0229144096374512,1116000
8.1875,8.28125,8.0,8.21875,1.0268187522888184,450400
8.15625,8.21875,7.78125,7.78125,0.9721598625183104,1567200
7.78125,7.9375,7.625,7.71875,0.9643508791923524,1307200
7.65625,8.125,7.65625,7.90625,0.987776517868042,615200
8.0,8.125,7.71875,7.9375,0.9916812181472778,941200
7.8125,8.34375,7.8125,8.34375,1.042436122894287,1912800
8.125,8.625,8.0,8.03125,1.0033940076828003,942400
8.0625,8.3125,7.875,8.3125,1.038532018661499,652800
8.28125,8.71875,8.28125,8.5625,1.0697660446166992,1797200
8.4375,8.875,8.4375,8.8125,1.1009995937347412,637600
8.75,8.875,8.65625,8.8125,1.1009995937347412,565600
8.875,8.90625,8.625,8.6875,1.0853826999664309,1291200
8.875,8.90625,8.8125,8.90625,1.1127123832702637,1926000
8.78125,8.875,8.625,8.75,1.0931910276412964,528000
8.75,8.8125,8.53125,8.6875,1.0853826999664309,650800
8.71875,8.78125,8.625,8.75,1.0931910276412964,683600
8.6875,8.71875,8.59375,8.6875,1.0853826999664309,294000
8.5,8.53125,8.3125,8.40625,1.050244927406311,364400
8.4375,8.46875,8.34375,8.46875,1.058053493499756,568800
8.375,8.53125,8.375,8.4375,1.0541484355926514,595600
8.375,8.59375,8.28125,8.28125,1.034627079963684,601600
8.4375,9.25,8.375,8.9375,1.116617202758789,664000
9.125,9.125,8.8125,9.0,1.1244255304336548,1014800
9.0,9.1875,8.875,9.09375,1.1361383199691772,1475600
9.09375,9.3125,8.8125,9.0625,1.13223397731781,2387600
9.0,9.03125,8.1875,8.1875,1.0229144096374512,970000
8.25,8.4375,8.15625,8.375,1.0463401079177856,759200
8.375,8.46875,8.1875,8.375,1.0463401079177856,528000
8.28125,8.4375,8.125,8.25,1.0307234525680542,454800
8.3125,8.40625,8.0625,8.25,1.0307234525680542,1061200
8.4375,8.59375,8.25,8.3125,1.038532018661499,828000
8.3125,8.5,8.25,8.3125,1.038532018661499,385200
8.25,8.75,8.25,8.375,1.0463401079177856,737200
8.28125,8.3125,7.9375,8.03125,1.0033940076828003,1120400
8.125,8.1875,7.8125,7.875,0.9838727116584778,1862400
7.9375,8.125,7.90625,8.09375,1.0112022161483765,416000
8.1875,8.59375,8.1875,8.53125,1.0658619403839111,641200
8.5,8.53125,8.3125,8.40625,1.050244927406311,434000
8.4375,8.46875,8.0,8.1875,1.0229144096374512,718800
8.28125,8.5625,8.25,8.5625,1.0697660446166992,776800
8.4375,8.59375,8.3125,8.5625,1.0697660446166992,601200
8.53125,8.6875,8.53125,8.6875,1.0853826999664309,543200
8.5,8.6875,8.4375,8.6875,1.0853826999664309,670800
8.6875,8.8125,8.4375,8.5625,1.0697660446166992,1468800
8.5,8.5625,8.34375,8.4375,1.0541484355926514,1864800
8.40625,8.46875,8.15625,8.3125,1.038532018661499,1898000
8.3125,8.40625,8.1875,8.40625,1.050244927406311,509600
8.40625,8.5625,8.40625,8.5,1.0619573593139648,654800
8.5,8.59375,8.5,8.5625,1.0697660446166992,507200
8.53125,8.6875,8.5,8.65625,1.0814785957336426,434400
8.71875,8.90625,8.71875,8.90625,1.1127123832702637,1358400
8.90625,9.125,8.8125,9.09375,1.175742745399475,1521600
9.125,9.375,9.0625,9.25,1.1959439516067505,2310800
9.1875,9.5,9.125,9.34375,1.2080657482147217,1151600
9.46875,10.0,9.40625,9.875,1.276750922203064,2069200
9.84375,9.96875,9.625,9.96875,1.2888718843460083,977600
9.9375,10.09375,9.6875,9.84375,1.272711157798767,1187200
10.0,10.25,9.8125,9.96875,1.2888718843460083,1755200
10.03125,10.375,9.75,9.75,1.260589599609375,2220000
9.8125,9.875,9.65625,9.75,1.260589599609375,818400
9.6875,9.9375,9.625,9.9375,1.2848312854766846,599600
9.9375,9.96875,9.75,9.84375,1.272711157798767,474000
9.78125,9.96875,9.75,9.96875,1.2888718843460083,486800
10.09375,10.46875,10.03125,10.28125,1.329276204109192,3058800
10.25,10.25,9.875,10.125,1.3090736865997314,965600
10.125,10.1875,9.9375,10.0625,1.30099356174469,928800
10.15625,10.25,10.0,10.21875,1.3211946487426758,1054400
10.15625,10.1875,9.9375,9.96875,1.2888718843460083,618400
9.96875,10.0,9.78125,9.875,1.276750922203064,990800
9.75,9.84375,9.5625,9.6875,1.2525086402893066,728400
9.75,9.75,9.65625,9.6875,1.2525086402893066,418000
9.6875,9.78125,9.625,9.78125,1.26462984085083,451600
9.75,9.90625,9.65625,9.90625,1.2807912826538086,446000
9.84375,10.125,9.84375,9.9375,1.2848312854766846,766000
9.9375,10.0625,9.875,10.03125,1.296952724456787,1423600
9.9375,10.03125,9.8125,9.96875,1.2888718843460083,506000
10.0,10.1875,9.96875,10.125,1.3090736865997314,580000
10.125,10.1875,9.9375,9.9375,1.2848312854766846,436000
9.78125,9.875,9.59375,9.78125,1.26462984085083,1446000
9.75,9.78125,9.53125,9.625,1.2444288730621338,715200
9.625,9.65625,9.375,9.4375,1.22018563747406,402800
9.5625,9.625,9.375,9.59375,1.240388035774231,345200
9.8125,9.84375,9.5625,9.65625,1.2484683990478516,670000
9.6875,9.8125,9.625,9.75,1.260589599609375,414800
9.8125,9.84375,9.625,9.84375,1.272711157798767,515600
9.8125,9.90625,9.75,9.875,1.276750922203064,340400
9.875,10.0625,9.84375,10.0625,1.30099356174469,764400
10.25,10.3125,10.15625,10.28125,1.329276204109192,1063600
10.25,10.5625,10.25,10.5625,1.365639328956604,1109600
10.46875,10.65625,10.40625,10.625,1.3737198114395142,1349600
10.5625,10.59375,10.5,10.59375,1.369678974151611,493600
10.59375,10.625,10.46875,10.5625,1.365639328956604,611600
10.375,10.375,9.875,9.875,1.276750922203064,706800
9.875,10.0625,9.75,10.0625,1.30099356174469,643600
9.90625,10.03125,9.90625,10.03125,1.296952724456787,538000
10.0,10.09375,9.78125,9.78125,1.26462984085083,1149200
9.78125,9.78125,9.5625,9.59375,1.240388035774231,1258800
9.65625,10.1875,9.65625,9.90625,1.2807912826538086,2023600
9.9375,10.21875,9.9375,10.1875,1.3171552419662476,800400
10.125,10.34375,10.0625,10.125,1.3090736865997314,488000
10.09375,10.59375,10.09375,10.59375,1.369678974151611,1281200
10.65625,10.8125,10.625,10.75,1.3898811340332031,1850000
10.75,10.84375,10.625,10.78125,1.3939216136932373,1218800
10.75,10.78125,10.625,10.71875,1.3858401775360107,1101600
10.65625,10.6875,10.34375,10.53125,1.3615987300872805,1128400
10.53125,10.5625,10.4375,10.5625,1.365639328956604,404000
10.46875,10.53125,10.40625,10.40625,1.3518366813659668,1030000
10.375,10.375,10.21875,10.25,1.3315383195877075,484800
10.25,10.3125,10.1875,10.25,1.3315383195877075,578800
10.21875,10.25,10.1875,10.21875,1.327478528022766,502400
10.25,10.34375,10.21875,10.25,1.3315383195877075,626000
10.125,10.21875,10.03125,10.21875,1.327478528022766,705200
10.21875,10.40625,10.1875,10.3125,1.3396579027175903,721600
10.4375,10.6875,10.375,10.6875,1.388371825218201,1312400
10.6875,10.75,10.625,10.65625,1.384313464164734,721600
10.75,10.78125,10.625,10.625,1.3802536725997925,395600
10.5625,10.65625,10.40625,10.5,1.364014983177185,1370000
10.375,10.40625,10.1875,10.21875,1.327478528022766,1310000
10.21875,10.375,10.21875,10.375,1.3477762937545776,717200
10.34375,10.375,10.09375,10.09375,1.3112406730651855,817600
10.09375,10.125,10.03125,10.125,1.3153003454208374,588400
10.1875,10.25,10.0625,10.125,1.3153003454208374,879200
10.15625,10.25,10.09375,10.25,1.3315383195877075,478800
10.21875,10.25,10.0625,10.125,1.3153003454208374,746000
10.15625,10.375,10.125,10.21875,1.327478528022766,547200
10.3125,10.375,10.21875,10.375,1.3477762937545776,1259600
10.375,10.4375,10.28125,10.4375,1.3558951616287231,605200
10.4375,10.625,10.375,10.625,1.3802536725997925,878400
10.625,10.6875,10.34375,10.625,1.3802536725997925,608000
10.59375,10.625,10.3125,10.4375,1.3558951616287231,864400
10.5625,10.75,10.5,10.75,1.396491765975952,1158400
10.78125,11.03125,10.75,10.78125,1.4005515575408936,1306400
10.84375,10.96875,10.75,10.84375,1.4086703062057495,395600
10.96875,10.96875,10.875,10.90625,1.4167890548706057,356000
11.125,11.15625,11.03125,11.09375,1.4411466121673584,1626800
11.0625,11.40625,11.0625,11.3125,1.4695632457733154,2314800
11.28125,11.28125,11.0,11.125,1.4452065229415894,952400
11.125,11.125,10.9375,11.0,1.4289673566818235,1290000
11.0,11.125,10.9375,11.0625,1.4370872974395752,590000
11.1875,11.28125,11.0,11.1875,1.453325629234314,1292400
11.3125,11.59375,11.21875,11.5625,1.502039909362793,2273200
11.53125,11.71875,11.46875,11.59375,1.5060999393463137,1383600
11.59375,11.625,11.4375,11.53125,1.4979805946350098,522800
11.4375,11.46875,11.1875,11.34375,1.4736238718032837,1053200
11.28125,11.375,11.1875,11.34375,1.4736238718032837,704000
11.28125,11.34375,11.0,11.21875,1.4573850631713867,812400
11.25,11.4375,11.15625,11.40625,1.4817417860031128,611200
11.34375,11.46875,11.25,11.375,1.477683186531067,1051200
11.40625,11.71875,11.3125,11.46875,1.4898619651794434,836000
11.5,11.5625,11.28125,11.34375,1.4736238718032837,773600
11.3125,11.375,11.1875,11.1875,1.453325629234314,672800
11.15625,11.375,11.15625,11.21875,1.4573850631713867,562000
11.15625,11.40625,11.15625,11.21875,1.4573850631713867,267600
11.4375,11.4375,11.21875,11.3125,1.4695632457733154,856000
11.34375,11.40625,11.25,11.3125,1.4695632457733154,551200
11.3125,11.40625,11.25,11.375,1.477683186531067,748800
11.40625,11.4375,11.3125,11.34375,1.4736238718032837,876800
11.34375,11.34375,11.125,11.21875,1.4573850631713867,476400
11.15625,11.21875,10.90625,11.0625,1.4370872974395752,506000
11.03125,11.1875,10.96875,11.09375,1.4411466121673584,544000
11.09375,11.15625,11.0,11.03125,1.4330278635025024,718800
10.96875,11.0625,10.84375,10.875,1.4127296209335327,638400
10.90625,11.0,10.8125,10.9375,1.4208489656448364,569600
